Time,Longitude,Latitude,Altitude,Roll (deg),Pitch (deg),Yaw (deg),Health
0.0,128.181867,37.923645,6999.6231864,4.0,-3.003,352.999,1.0
0.0166,128.18186,37.92369,6999.375079200001,4.0,-3.012,352.999,1.0
0.0333,128.181853,37.923734,6999.1257528,4.001,-3.028,353.0,1.0
0.05,128.181846,37.923779,6998.874597600001,4.015,-3.045,353.006,1.0
0.0666,128.181839,37.923823,6998.6234424,4.019,-3.064,353.012,1.0
0.0833,128.181832,37.923868,6998.371982400001,4.015,-3.083,353.018,1.0
0.1,128.181825,37.923912,6998.1193032,4.004,-3.102,353.024,1.0
0.1166,128.181818,37.923957,6997.8660144000005,3.986,-3.121,353.03,1.0
0.1333,128.181812,37.924001,6997.612116,3.962,-3.14,353.036,1.0
0.15,128.181805,37.924046,6997.3573032,3.934,-3.16,353.041,1.0
0.1666,128.181798,37.92409,6997.101576,3.901,-3.179,353.047,1.0
0.1833,128.181791,37.924135,6996.8452392,3.865,-3.198,353.053,1.0
0.2,128.181784,37.924179,6996.5876832,3.826,-3.216,353.059,1.0
0.2166,128.181777,37.924224,6996.3295176,3.784,-3.234,353.066,1.0
0.2333,128.18177,37.924269,6996.0704376,3.74,-3.253,353.072,1.0
0.25,128.181763,37.924313,6995.810138400001,3.695,-3.27,353.078,1.0
0.2666,128.181756,37.924358,6995.5492296,3.647,-3.288,353.084,1.0
0.2833,128.181749,37.924402,6995.287101600001,3.598,-3.305,353.091,1.0
0.3,128.181742,37.924447,6995.024364000001,3.549,-3.323,353.097,1.0
0.3166,128.181735,37.924491,6994.7604071999995,3.498,-3.34,353.103,1.0
0.3333,128.181729,37.924536,6994.4952312000005,3.446,-3.356,353.11,1.0
0.35,128.181722,37.92458,6994.2294456,3.393,-3.373,353.116,1.0
0.3666,128.181715,37.924625,6993.9624408,3.339,-3.389,353.122,1.0
0.3833,128.181708,37.92467,6993.6945216,3.285,-3.405,353.128,1.0
0.4,128.181701,37.924714,6993.4253832,3.23,-3.422,353.135,1.0
0.4166,128.181694,37.924759,6993.1553304,3.174,-3.437,353.141,1.0
0.4333,128.181687,37.924803,6992.8843632,3.118,-3.453,353.147,1.0
0.45,128.18168,37.924848,6992.6121768,3.062,-3.469,353.153,1.0
0.4666,128.181673,37.924892,6992.339076,3.005,-3.484,353.159,1.0
0.4833,128.181666,37.924937,6992.064756000001,2.947,-3.5,353.165,1.0
0.5,128.18166,37.924981,6991.7895216,2.889,-3.515,353.171,1.0
0.5166,128.181653,37.925026,6991.5133728,2.83,-3.53,353.177,1.0
0.5333,128.181646,37.925071,6991.2357,2.771,-3.545,353.183,1.0
0.55,128.181639,37.925115,6990.957417600001,2.712,-3.56,353.189,1.0
0.5666,128.181632,37.92516,6990.677611200001,2.652,-3.575,353.195,1.0
0.5833,128.181625,37.925204,6990.3968904,2.592,-3.589,353.201,1.0
0.6,128.181618,37.925249,6990.1152552,2.531,-3.604,353.207,1.0
0.6166,128.181611,37.925293,6989.832400800001,2.47,-3.619,353.212,1.0
0.6333,128.181605,37.925338,6989.5483272,2.409,-3.633,353.218,1.0
0.65,128.181598,37.925383,6989.2633392,2.347,-3.647,353.224,1.0
0.6666,128.181591,37.925427,6988.977132,2.285,-3.662,353.23,1.0
0.6833,128.181584,37.925472,6988.689705600001,2.222,-3.676,353.235,1.0
0.7,128.181577,37.925516,6988.401364800001,2.159,-3.69,353.241,1.0
0.7166,128.18157,37.925561,6988.111804800001,2.096,-3.704,353.247,1.0
0.7333,128.181563,37.925606,6987.8210256,2.032,-3.719,353.252,1.0
0.75,128.181556,37.92565,6987.529332,1.968,-3.733,353.258,1.0
0.7666,128.18155,37.925695,6987.236114400001,1.904,-3.747,353.263,1.0
0.7833,128.181543,37.925739,6986.9422872000005,1.84,-3.761,353.269,1.0
0.8,128.181536,37.925784,6986.646936,1.775,-3.775,353.274,1.0
0.8166,128.181529,37.925829,6986.350670400001,1.709,-3.788,353.279,1.0
0.8333,128.181522,37.925873,6986.0531856,1.644,-3.802,353.285,1.0
0.85,128.181515,37.925918,6985.7544816,1.578,-3.816,353.29,1.0
0.8666,128.181508,37.925962,6985.454863200001,1.511,-3.83,353.295,1.0
0.8833,128.181501,37.926007,6985.1537208,1.445,-3.844,353.301,1.0
0.9,128.181495,37.926052,6984.851664000001,1.378,-3.857,353.306,1.0
0.9166,128.181488,37.926096,6984.548692800001,1.31,-3.871,353.311,1.0
0.9333,128.181481,37.926141,6984.244197600001,1.243,-3.885,353.316,1.0
0.95,128.181474,37.926185,6983.938788,1.175,-3.898,353.321,1.0
0.9666,128.181467,37.92623,6983.6318544000005,1.106,-3.912,353.327,1.0
0.9833,128.18146,37.926275,6983.324006400001,1.038,-3.925,353.332,1.0
1.0,128.181453,37.926319,6983.015244,0.969,-3.939,353.337,1.0
1.0166,128.181447,37.926364,6982.7049576,0.9,-3.952,353.342,1.0
1.0333,128.18144,37.926408,6982.393756800001,0.83,-3.966,353.347,1.0
1.05,128.181433,37.926453,6982.081032,0.761,-3.979,353.352,1.0
1.0666,128.181426,37.926498,6981.7673928,0.691,-3.993,353.357,1.0
1.0833,128.181419,37.926542,6981.452534399999,0.62,-4.006,353.362,1.0
1.1,128.181412,37.926587,6981.136456800001,0.55,-4.02,353.366,1.0
1.1166,128.181405,37.926632,6980.819464800001,0.479,-4.033,353.371,1.0
1.1333,128.181399,37.926676,6980.5009488,0.407,-4.047,353.376,1.0
1.15,128.181392,37.926721,6980.181518400001,0.336,-4.06,353.381,1.0
1.1666,128.181385,37.926765,6979.8608688,0.264,-4.073,353.386,1.0
1.1833,128.181378,37.92681,6979.539000000001,0.192,-4.087,353.39,1.0
1.2,128.181371,37.926855,6979.215912,0.119,-4.1,353.395,1.0
1.2166,128.181364,37.926899,6978.8903856,0.069,-4.112,353.401,1.0
1.2333,128.181357,37.926944,6978.5630304,0.04,-4.124,353.409,1.0
1.25,128.181351,37.926989,6978.2338464,0.032,-4.135,353.417,1.0
1.2666,128.181344,37.927033,6977.903138400001,0.04,-4.146,353.425,1.0
1.2833,128.181337,37.927078,6977.570906400001,0.064,-4.157,353.433,1.0
1.3,128.18133,37.927123,6977.2368456,0.101,-4.167,353.441,1.0
1.3166,128.181323,37.927167,6976.901260800001,0.148,-4.178,353.448,1.0
1.3333,128.181316,37.927212,6976.564152000001,0.205,-4.188,353.454,1.0
1.35,128.18131,37.927257,6976.225824000001,0.268,-4.199,353.46,1.0
1.3666,128.181303,37.927301,6975.885972,0.338,-4.21,353.466,1.0
1.3833,128.181296,37.927346,6975.5449008000005,0.413,-4.221,353.471,1.0
1.4,128.181289,37.927391,6975.202305600001,0.491,-4.233,353.476,1.0
1.4166,128.181282,37.927435,6974.858186400001,0.573,-4.244,353.481,1.0
1.4333,128.181275,37.92748,6974.512848,0.657,-4.256,353.485,1.0
1.45,128.181269,37.927525,6974.1662904,0.743,-4.268,353.49,1.0
1.4666,128.181262,37.927569,6973.8185136,0.83,-4.281,353.494,1.0
1.4833,128.181255,37.927614,6973.4692128,0.919,-4.293,353.498,1.0
1.5,128.181248,37.927659,6973.118692800001,1.008,-4.305,353.502,1.0
1.5166,128.181241,37.927703,6972.7669536,1.098,-4.318,353.506,1.0
1.5333,128.181234,37.927748,6972.413690400001,1.189,-4.331,353.51,1.0
1.55,128.181228,37.927793,6972.0595128,1.281,-4.344,353.513,1.0
1.5666,128.181221,37.927838,6971.703811200001,1.372,-4.357,353.517,1.0
1.5833,128.181214,37.927882,6971.3468904,1.464,-4.37,353.52,1.0
1.6,128.181207,37.927927,6970.9884456,1.556,-4.383,353.524,1.0
1.6166,128.1812,37.927972,6970.6290864,1.648,-4.396,353.527,1.0
1.6333,128.181193,37.928016,6970.268508,1.741,-4.41,353.53,1.0
1.65,128.181187,37.928061,6969.906405600001,1.833,-4.423,353.534,1.0
1.6666,128.18118,37.928106,6969.543084000001,1.925,-4.437,353.537,1.0
1.6833,128.181173,37.928151,6969.1785432,2.018,-4.45,353.54,1.0
1.7,128.181166,37.928195,6968.812783200001,2.11,-4.464,353.543,1.0
1.7166,128.181159,37.92824,6968.445804,2.203,-4.478,353.546,1.0
1.7333,128.181152,37.928285,6968.077300800001,2.295,-4.492,353.549,1.0
1.75,128.181146,37.928329,6967.707883200001,2.387,-4.506,353.552,1.0
1.7666,128.181139,37.928374,6967.3369416000005,2.48,-4.52,353.555,1.0
1.7833,128.181132,37.928419,6966.9647808,2.572,-4.534,353.558,1.0
1.8,128.181125,37.928464,6966.591400800001,2.664,-4.548,353.561,1.0
1.8166,128.181118,37.928508,6966.2168016000005,2.757,-4.562,353.563,1.0
1.8333,128.181112,37.928553,6965.840983200001,2.849,-4.576,353.566,1.0
1.85,128.181105,37.928598,6965.4639456,2.942,-4.59,353.569,1.0
1.8666,128.181098,37.928643,6965.085384000001,3.034,-4.605,353.572,1.0
1.8833,128.181091,37.928687,6964.7056032,3.126,-4.619,353.574,1.0
1.9,128.181084,37.928732,6964.3249080000005,3.219,-4.633,353.577,1.0
1.9166,128.181078,37.928777,6963.9426888,3.311,-4.648,353.579,1.0
1.9333,128.181071,37.928822,6963.559250400001,3.403,-4.662,353.582,1.0
1.95,128.181064,37.928867,6963.174288000001,3.496,-4.677,353.584,1.0
1.9666,128.181057,37.928911,6962.788411200001,3.588,-4.691,353.587,1.0
1.9833,128.18105,37.928956,6962.401315200001,3.681,-4.706,353.589,1.0
2.0,128.181044,37.929001,6962.0126952,3.773,-4.72,353.592,1.0
2.0166,128.181037,37.929046,6961.622856000001,3.866,-4.735,353.594,1.0
2.0333,128.18103,37.92909,6961.231797600001,3.959,-4.75,353.596,1.0
2.05,128.181023,37.929135,6960.83952,4.051,-4.764,353.599,1.0
2.0666,128.181016,37.92918,6960.4460232,4.144,-4.779,353.601,1.0
2.0833,128.18101,37.929225,6960.0513072,4.237,-4.794,353.603,1.0
2.1,128.181003,37.92927,6959.6550672,4.33,-4.809,353.606,1.0
2.1166,128.180996,37.929314,6959.2579128,4.423,-4.823,353.608,1.0
2.1333,128.180989,37.929359,6958.8592344,4.516,-4.838,353.61,1.0
2.15,128.180982,37.929404,6958.4593368000005,4.609,-4.853,353.612,1.0
2.1666,128.180976,37.929449,6958.058220000001,4.702,-4.868,353.614,1.0
2.1833,128.180969,37.929494,6957.655884000001,4.796,-4.883,353.616,1.0
2.2,128.180962,37.929539,6957.252024,4.889,-4.898,353.618,1.0
2.2166,128.180955,37.929583,6956.8472496,4.983,-4.913,353.621,1.0
2.2333,128.180949,37.929628,6956.4409512,5.076,-4.928,353.623,1.0
2.25,128.180942,37.929673,6956.0334336000005,5.17,-4.943,353.625,1.0
2.2666,128.180935,37.929718,6955.6246968000005,5.264,-4.958,353.627,1.0
2.2833,128.180928,37.929763,6955.2147408,5.358,-4.973,353.629,1.0
2.3,128.180922,37.929808,6954.8032608,5.452,-4.988,353.631,1.0
2.3166,128.180915,37.929852,6954.3908664,5.546,-5.003,353.633,1.0
2.3333,128.180908,37.929897,6953.9769479999995,5.64,-5.018,353.634,1.0
2.35,128.180901,37.929942,6953.5618104000005,5.735,-5.033,353.636,1.0
2.3666,128.180895,37.929987,6953.1454536,5.83,-5.048,353.638,1.0
2.3833,128.180888,37.930032,6952.7278776,5.924,-5.063,353.64,1.0
2.4,128.180881,37.930077,6952.3087776,6.019,-5.078,353.642,1.0
2.4166,128.180874,37.930122,6951.8884584,6.114,-5.093,353.644,1.0
2.4333,128.180868,37.930167,6951.467224800001,6.21,-5.108,353.646,1.0
2.45,128.180861,37.930211,6951.0444672,6.305,-5.123,353.648,1.0
2.4666,128.180854,37.930256,6950.6201856,6.4,-5.139,353.649,1.0
2.4833,128.180847,37.930301,6950.1949896,6.496,-5.154,353.651,1.0
2.5,128.180841,37.930346,6949.768269600001,6.592,-5.169,353.653,1.0
2.5166,128.180834,37.930391,6949.3403304,6.688,-5.184,353.655,1.0
2.5333,128.180827,37.930436,6948.911172,6.784,-5.199,353.656,1.0
2.55,128.18082,37.930481,6948.4807944,6.881,-5.214,353.658,1.0
2.5666,128.180814,37.930526,6948.0488928,6.977,-5.23,353.66,1.0
2.5833,128.180807,37.930571,6947.6160768,7.074,-5.245,353.662,1.0
2.6,128.1808,37.930616,6947.1817368,7.171,-5.26,353.663,1.0
2.6166,128.180794,37.93066,6946.7461776,7.268,-5.275,353.665,1.0
2.6333,128.180787,37.930705,6946.3090944000005,7.366,-5.291,353.667,1.0
2.65,128.18078,37.93075,6945.8710968000005,7.463,-5.306,353.668,1.0
2.6666,128.180773,37.930795,6945.4315752,7.561,-5.321,353.67,1.0
2.6833,128.180767,37.93084,6944.9908344,7.659,-5.336,353.672,1.0
2.7,128.18076,37.930885,6944.5488744,7.757,-5.352,353.673,1.0
2.7166,128.180753,37.93093,6944.1053904,7.855,-5.367,353.675,1.0
2.7333,128.180747,37.930975,6943.660992000001,7.954,-5.382,353.676,1.0
2.75,128.18074,37.93102,6943.215069600001,8.053,-5.397,353.678,1.0
2.7666,128.180733,37.931065,6942.7676232,8.152,-5.413,353.68,1.0
2.7833,128.180727,37.93111,6942.3192624,8.251,-5.428,353.681,1.0
2.8,128.18072,37.931155,6941.8693776,8.35,-5.443,353.683,1.0
2.8166,128.180713,37.9312,6941.4182736,8.45,-5.458,353.684,1.0
2.8333,128.180707,37.931245,6940.9659504,8.55,-5.474,353.686,1.0
2.85,128.1807,37.93129,6940.5124080000005,8.65,-5.489,353.688,1.0
2.8666,128.180693,37.931335,6940.057341600001,8.75,-5.504,353.689,1.0
2.8833,128.180687,37.93138,6939.601056,8.851,-5.519,353.691,1.0
2.9,128.18068,37.931425,6939.143551200001,8.952,-5.535,353.692,1.0
2.9166,128.180673,37.93147,6938.6845224,9.053,-5.55,353.694,1.0
2.9333,128.180667,37.931515,6938.224579200001,9.154,-5.565,353.695,1.0
2.95,128.18066,37.93156,6937.763112,9.255,-5.58,353.697,1.0
2.9666,128.180653,37.931605,6937.3001208,9.357,-5.596,353.698,1.0
2.9833,128.180647,37.93165,6936.836215200001,9.459,-5.611,353.7,1.0
3.0,128.18064,37.931695,6936.3707856,9.561,-5.626,353.701,1.0
3.0166,128.180633,37.93174,6935.904136800001,9.664,-5.641,353.703,1.0
3.0333,128.180627,37.931785,6935.4362688,9.767,-5.657,353.705,1.0
3.05,128.18062,37.93183,6934.9668768,9.87,-5.672,353.706,1.0
3.0666,128.180613,37.931875,6934.496265600001,9.973,-5.687,353.708,1.0
3.0833,128.180607,37.93192,6934.0244352,10.076,-5.702,353.709,1.0
3.1,128.1806,37.931965,6933.5510808,10.18,-5.718,353.711,1.0
3.1166,128.180594,37.93201,6933.0765071999995,10.284,-5.733,353.712,1.0
3.1333,128.180587,37.932055,6932.6007144000005,10.388,-5.748,353.714,1.0
3.15,128.18058,37.9321,6932.1237024,10.493,-5.763,353.715,1.0
3.1666,128.180574,37.932145,6931.6451664,10.598,-5.779,353.717,1.0
3.1833,128.180567,37.93219,6931.165411200001,10.703,-5.794,353.718,1.0
3.2,128.180561,37.932235,6930.6844368,10.808,-5.809,353.72,1.0
3.2166,128.180554,37.932281,6930.2019384000005,10.914,-5.824,353.721,1.0
3.2333,128.180547,37.932326,6929.7182207999995,11.02,-5.839,353.723,1.0
3.25,128.180541,37.932371,6929.233284000001,11.126,-5.855,353.724,1.0
3.2666,128.180534,37.932416,6928.7468232,11.232,-5.87,353.726,1.0
3.2833,128.180528,37.932461,6928.2591432,11.339,-5.885,353.727,1.0
3.3,128.180521,37.932506,6927.770244,11.446,-5.9,353.729,1.0
3.3166,128.180514,37.932551,6927.2801256,11.554,-5.915,353.73,1.0
3.3333,128.180508,37.932596,6926.788483200001,11.661,-5.931,353.732,1.0
3.35,128.180501,37.932641,6926.2956216,11.769,-5.946,353.733,1.0
3.3666,128.180495,37.932687,6925.801236,11.877,-5.961,353.735,1.0
3.3833,128.180488,37.932732,6925.3056312,11.986,-5.976,353.736,1.0
3.4,128.180482,37.932777,6924.8088072,12.095,-5.991,353.738,1.0
3.4166,128.180475,37.932822,6924.3104592,12.204,-6.007,353.739,1.0
3.4333,128.180468,37.932867,6923.810892,12.313,-6.022,353.741,1.0
3.45,128.180462,37.932912,6923.3101056000005,12.423,-6.037,353.742,1.0
3.4666,128.180455,37.932957,6922.8081,12.533,-6.052,353.744,1.0
3.4833,128.180449,37.933003,6922.304570400001,12.644,-6.068,353.745,1.0
3.5,128.180442,37.933048,6921.7995168,12.754,-6.083,353.747,1.0
3.5166,128.180436,37.933093,6921.2935488,12.865,-6.098,353.748,1.0
3.5333,128.180429,37.933138,6920.786056800001,12.977,-6.113,353.75,1.0
3.55,128.180423,37.933183,6920.277040800001,13.089,-6.129,353.751,1.0
3.5666,128.180416,37.933228,6919.7668056,13.201,-6.144,353.753,1.0
3.5833,128.18041,37.933274,6919.2553512,13.313,-6.159,353.754,1.0
3.6,128.180403,37.933319,6918.7426776,13.426,-6.175,353.756,1.0
3.6166,128.180397,37.933364,6918.22848,13.539,-6.19,353.757,1.0
3.6333,128.18039,37.933409,6917.7127584,13.652,-6.205,353.759,1.0
3.65,128.180384,37.933454,6917.196122400001,13.766,-6.22,353.761,1.0
3.6666,128.180377,37.9335,6916.6776576,13.88,-6.236,353.762,1.0
3.6833,128.180371,37.933545,6916.1582784,13.994,-6.251,353.764,1.0
3.7,128.180364,37.93359,6915.6373752,14.109,-6.267,353.765,1.0
3.7166,128.180358,37.933635,6915.1152528,14.224,-6.282,353.767,1.0
3.7333,128.180351,37.93368,6914.591606400001,14.339,-6.297,353.768,1.0
3.75,128.180345,37.933726,6914.0667408,14.455,-6.313,353.77,1.0
3.7666,128.180338,37.933771,6913.5403512,14.571,-6.328,353.771,1.0
3.7833,128.180332,37.933816,6913.012742400001,14.687,-6.343,353.773,1.0
3.8,128.180325,37.933861,6912.483914400001,14.804,-6.359,353.774,1.0
3.8166,128.180319,37.933907,6911.9535624,14.921,-6.374,353.776,1.0
3.8333,128.180312,37.933952,6911.4216864,15.038,-6.39,353.777,1.0
3.85,128.180306,37.933997,6910.888896,15.156,-6.405,353.779,1.0
3.8666,128.180299,37.934043,6910.354276800001,15.274,-6.421,353.78,1.0
3.8833,128.180293,37.934088,6909.8187431999995,15.392,-6.436,353.782,1.0
3.9,128.180286,37.934133,6909.2816856,15.511,-6.452,353.784,1.0
3.9166,128.18028,37.934178,6908.743104,15.63,-6.467,353.785,1.0
3.9333,128.180274,37.934224,6908.2033032,15.75,-6.482,353.787,1.0
3.95,128.180267,37.934269,6907.6619784,15.869,-6.498,353.788,1.0
3.9666,128.180261,37.934314,6907.1194344,15.99,-6.513,353.79,1.0
3.9833,128.180254,37.93436,6906.5756712,16.11,-6.529,353.791,1.0
4.0,128.180248,37.934405,6906.030384000001,16.231,-6.544,353.793,1.0
4.0166,128.180241,37.93445,6905.483877600001,16.352,-6.56,353.795,1.0
4.0333,128.180235,37.934496,6904.9358472,16.473,-6.575,353.796,1.0
4.05,128.180229,37.934541,6904.386292800001,16.595,-6.59,353.798,1.0
4.0666,128.180222,37.934586,6903.835519200001,16.717,-6.606,353.799,1.0
4.0833,128.180216,37.934632,6903.2835264000005,16.84,-6.621,353.801,1.0
4.1,128.180209,37.934677,6902.730009600001,16.962,-6.637,353.803,1.0
4.1166,128.180203,37.934722,6902.174968800001,17.085,-6.652,353.804,1.0
4.1333,128.180197,37.934768,6901.618708800001,17.209,-6.668,353.806,1.0
4.15,128.18019,37.934813,6901.0612296,17.332,-6.683,353.807,1.0
4.1666,128.180184,37.934858,6900.5022264,17.456,-6.699,353.809,1.0
4.1833,128.180178,37.934904,6899.941699200001,17.58,-6.714,353.811,1.0
4.2,128.180171,37.934949,6899.3799528,17.704,-6.73,353.812,1.0
4.2166,128.180165,37.934995,6898.816987200001,17.829,-6.745,353.814,1.0
4.2333,128.180159,37.93504,6898.252192800001,17.954,-6.761,353.816,1.0
4.25,128.180152,37.935085,6897.686484000001,18.079,-6.776,353.817,1.0
4.2666,128.180146,37.935131,6897.118946400001,18.205,-6.792,353.819,1.0
4.2833,128.18014,37.935176,6896.5501896,18.33,-6.808,353.82,1.0
4.3,128.180133,37.935222,6895.980213600001,18.457,-6.823,353.822,1.0
4.3166,128.180127,37.935267,6895.408713600001,18.583,-6.839,353.824,1.0
4.3333,128.180121,37.935313,6894.8356896000005,18.71,-6.854,353.825,1.0
4.35,128.180114,37.935358,6894.261446400001,18.837,-6.87,353.827,1.0
4.3666,128.180108,37.935403,6893.685679200001,18.964,-6.886,353.829,1.0
4.3833,128.180102,37.935449,6893.1086928,19.092,-6.901,353.83,1.0
4.4,128.180095,37.935494,6892.530182400001,19.22,-6.917,353.832,1.0
4.4166,128.180089,37.93554,6891.950148,19.348,-6.933,353.834,1.0
4.4333,128.180083,37.935585,6891.3688944000005,19.477,-6.948,353.835,1.0
4.45,128.180076,37.935631,6890.7861168,19.606,-6.964,353.837,1.0
4.4666,128.18007,37.935676,6890.201815200001,19.735,-6.98,353.839,1.0
4.4833,128.180064,37.935722,6889.6162944,19.865,-6.995,353.84,1.0
4.5,128.180058,37.935767,6889.0292496,19.995,-7.011,353.842,1.0
4.5166,128.180051,37.935813,6888.4409856,20.125,-7.027,353.844,1.0
4.5333,128.180045,37.935858,6887.850892800001,20.255,-7.042,353.845,1.0
4.55,128.180039,37.935904,6887.259580800001,20.386,-7.058,353.847,1.0
4.5666,128.180033,37.935949,6886.667049600001,20.517,-7.074,353.849,1.0
4.5833,128.180026,37.935995,6886.0729944,20.649,-7.089,353.851,1.0
4.6,128.18002,37.93604,6885.477415200001,20.781,-7.105,353.852,1.0
4.6166,128.180014,37.936086,6884.880312,20.913,-7.121,353.854,1.0
4.6333,128.180008,37.936131,6884.2819896,21.045,-7.137,353.856,1.0
4.65,128.180001,37.936177,6883.6821432,21.178,-7.152,353.857,1.0
4.6666,128.179995,37.936222,6883.0807728,21.311,-7.168,353.859,1.0
4.6833,128.179989,37.936268,6882.477878400001,21.445,-7.184,353.861,1.0
4.7,128.179983,37.936314,6881.873764800001,21.579,-7.2,353.863,1.0
4.7166,128.179977,37.936359,6881.2681272,21.713,-7.216,353.864,1.0
4.7333,128.17997,37.936405,6880.660965600001,21.848,-7.231,353.866,1.0
4.75,128.179964,37.93645,6880.0525848,21.982,-7.247,353.868,1.0
4.7666,128.179958,37.936496,6879.44268,22.118,-7.263,353.87,1.0
4.7833,128.179952,37.936541,6878.8312512,22.253,-7.279,353.871,1.0
4.8,128.179946,37.936587,6878.2182984,22.389,-7.295,353.873,1.0
4.8166,128.179939,37.936633,6877.6038216,22.526,-7.311,353.875,1.0
4.8333,128.179933,37.936678,6876.9881256,22.662,-7.327,353.877,1.0
4.85,128.179927,37.936724,6876.370600800001,22.799,-7.342,353.878,1.0
4.8666,128.179921,37.936769,6875.7518568000005,22.937,-7.358,353.88,1.0
4.8833,128.179915,37.936815,6875.1315888,23.074,-7.374,353.882,1.0
4.9,128.179909,37.936861,6874.510101600001,23.212,-7.39,353.884,1.0
4.9166,128.179903,37.936906,6873.8867856,23.351,-7.406,353.886,1.0
4.9333,128.179896,37.936952,6873.2622504,23.49,-7.422,353.887,1.0
