Time,Longitude,Latitude,Altitude,Roll (deg),Pitch (deg),Yaw (deg),Health
0.0,128.181877,37.923646,7000.146528,4.0,-0.003,357.999,1.0
0.0166,128.181875,37.923691,7000.1605488000005,4.0,-0.012,357.999,1.0
0.0333,128.181873,37.923736,7000.1733504,4.0,-0.028,358.0,1.0
0.05,128.181871,37.92378,7000.186152000001,3.989,-0.046,358.004,1.0
0.0666,128.181869,37.923825,7000.1980392,3.969,-0.064,358.008,1.0
0.0833,128.181867,37.92387,7000.2093168,3.941,-0.083,358.014,1.0
0.1,128.181865,37.923915,7000.2199848,3.907,-0.101,358.019,1.0
0.1166,128.181863,37.92396,7000.2294336,3.869,-0.12,358.025,1.0
0.1333,128.181861,37.924005,7000.2385776,3.828,-0.138,358.032,1.0
0.15,128.181859,37.92405,7000.2465024,3.783,-0.156,358.038,1.0
0.1666,128.181857,37.924095,7000.2538176,3.736,-0.174,358.044,1.0
0.1833,128.181855,37.92414,7000.2599136,3.687,-0.191,358.051,1.0
0.2,128.181853,37.924185,7000.2654,3.636,-0.209,358.057,1.0
0.2166,128.181851,37.924229,7000.269972,3.584,-0.226,358.064,1.0
0.2333,128.181849,37.924274,7000.273629599999,3.53,-0.242,358.07,1.0
0.25,128.181847,37.924319,7000.2763728,3.475,-0.259,358.077,1.0
0.2666,128.181845,37.924364,7000.2778968,3.42,-0.275,358.083,1.0
0.2833,128.181843,37.924409,7000.278811200001,3.363,-0.292,358.09,1.0
0.3,128.181841,37.924454,7000.278811200001,3.305,-0.308,358.097,1.0
0.3166,128.181839,37.924499,7000.277592,3.247,-0.324,358.103,1.0
0.3333,128.181837,37.924544,7000.2754584,3.188,-0.339,358.109,1.0
0.35,128.181835,37.924589,7000.272410400001,3.129,-0.355,358.116,1.0
0.3666,128.181833,37.924634,7000.268448,3.069,-0.37,358.122,1.0
0.3833,128.181832,37.924678,7000.2632664,3.008,-0.385,358.129,1.0
0.4,128.18183,37.924723,7000.257170400001,2.947,-0.4,358.135,1.0
0.4166,128.181828,37.924768,7000.2501600000005,2.885,-0.415,358.141,1.0
0.4333,128.181826,37.924813,7000.2419304000005,2.823,-0.43,358.148,1.0
0.45,128.181824,37.924858,7000.232786400001,2.76,-0.445,358.154,1.0
0.4666,128.181822,37.924903,7000.222728000001,2.697,-0.46,358.16,1.0
0.4833,128.18182,37.924948,7000.2114504,2.633,-0.474,358.166,1.0
0.5,128.181818,37.924993,7000.1992584,2.569,-0.488,358.172,1.0
0.5166,128.181816,37.925038,7000.186152000001,2.505,-0.503,358.178,1.0
0.5333,128.181814,37.925083,7000.1718264,2.44,-0.517,358.184,1.0
0.55,128.181812,37.925127,7000.1565864,2.375,-0.531,358.19,1.0
0.5666,128.18181,37.925172,7000.1401272,2.309,-0.545,358.196,1.0
0.5833,128.181808,37.925217,7000.1227536,2.243,-0.559,358.202,1.0
0.6,128.181806,37.925262,7000.1041608000005,2.176,-0.573,358.208,1.0
0.6166,128.181804,37.925307,7000.0846536,2.11,-0.587,358.214,1.0
0.6333,128.181802,37.925352,7000.063927200001,2.042,-0.601,358.22,1.0
0.65,128.1818,37.925397,7000.0422864,1.975,-0.615,358.226,1.0
0.6666,128.181799,37.925442,7000.0194264,1.907,-0.629,358.231,1.0
0.6833,128.181797,37.925487,6999.995347200001,1.838,-0.642,358.237,1.0
0.7,128.181795,37.925532,6999.9706584000005,1.77,-0.656,358.243,1.0
0.7166,128.181793,37.925577,6999.9444456,1.7,-0.669,358.248,1.0
0.7333,128.181791,37.925621,6999.9173184,1.631,-0.683,358.254,1.0
0.75,128.181789,37.925666,6999.888972,1.561,-0.696,358.259,1.0
0.7666,128.181787,37.925711,6999.859711200001,1.491,-0.71,358.265,1.0
0.7833,128.181785,37.925756,6999.829536,1.421,-0.723,358.27,1.0
0.8,128.181783,37.925801,6999.7978368,1.35,-0.737,358.276,1.0
0.8166,128.181781,37.925846,6999.7652232,1.278,-0.75,358.281,1.0
0.8333,128.181779,37.925891,6999.7316952,1.207,-0.763,358.287,1.0
0.85,128.181777,37.925936,6999.6966432,1.135,-0.777,358.292,1.0
0.8666,128.181775,37.925981,6999.6606768,1.063,-0.79,358.297,1.0
0.8833,128.181774,37.926026,6999.623796000001,0.99,-0.803,358.303,1.0
0.9,128.181772,37.926071,6999.585696,0.917,-0.816,358.308,1.0
0.9166,128.18177,37.926116,6999.5463768,0.844,-0.83,358.313,1.0
0.9333,128.181768,37.92616,6999.5061432,0.771,-0.843,358.318,1.0
0.95,128.181766,37.926205,6999.4643856,0.697,-0.856,358.324,1.0
0.9666,128.181764,37.92625,6999.4220184000005,0.623,-0.869,358.329,1.0
0.9833,128.181762,37.926295,6999.378127200001,0.548,-0.882,358.334,1.0
1.0,128.18176,37.92634,6999.3333216,0.473,-0.895,358.339,1.0
1.0166,128.181758,37.926385,6999.287296800001,0.398,-0.908,358.344,1.0
1.0333,128.181756,37.92643,6999.2400528,0.323,-0.921,358.349,1.0
1.05,128.181754,37.926475,6999.1918944,0.247,-0.934,358.354,1.0
1.0666,128.181753,37.92652,6999.1425168,0.171,-0.947,358.359,1.0
1.0833,128.181751,37.926565,6999.091920000001,0.095,-0.96,358.364,1.0
1.1,128.181749,37.92661,6999.0404088000005,0.018,-0.973,358.369,1.0
1.1166,128.181747,37.926655,6998.987678400001,-0.058,-0.986,358.374,1.0
1.1333,128.181745,37.9267,6998.933728800001,-0.135,-0.999,358.378,1.0
1.15,128.181743,37.926745,6998.878560000001,-0.212,-1.012,358.383,1.0
1.1666,128.181741,37.92679,6998.8224768,-0.29,-1.025,358.388,1.0
1.1833,128.181739,37.926834,6998.7651744,-0.368,-1.038,358.393,1.0
1.2,128.181737,37.926879,6998.7066528,-0.446,-1.051,358.398,1.0
1.2166,128.181736,37.926924,6998.6472168,-0.525,-1.063,358.402,1.0
1.2333,128.181734,37.926969,6998.586256800001,-0.604,-1.076,358.407,1.0
1.25,128.181732,37.927014,6998.524382400001,-0.683,-1.089,358.412,1.0
1.2666,128.18173,37.927059,6998.4612888,-0.763,-1.102,358.416,1.0
1.2833,128.181728,37.927104,6998.3972808,-0.842,-1.115,358.421,1.0
1.3,128.181726,37.927149,6998.3317488,-0.923,-1.128,358.425,1.0
1.3166,128.181724,37.927194,6998.2653024,-1.003,-1.141,358.43,1.0
1.3333,128.181722,37.927239,6998.1976368000005,-1.083,-1.153,358.434,1.0
1.35,128.18172,37.927284,6998.1287520000005,-1.164,-1.166,358.439,1.0
1.3666,128.181718,37.927329,6998.0589528,-1.246,-1.179,358.443,1.0
1.3833,128.181717,37.927374,6997.9876296,-1.327,-1.192,358.448,1.0
1.4,128.181715,37.927419,6997.915392000001,-1.409,-1.204,358.452,1.0
1.4166,128.181713,37.927464,6997.8419352,-1.491,-1.217,358.457,1.0
1.4333,128.181711,37.927509,6997.767564000001,-1.573,-1.23,358.461,1.0
1.45,128.181709,37.927554,6997.6916688,-1.656,-1.243,358.465,1.0
1.4666,128.181707,37.927599,6997.6148592,-1.739,-1.256,358.47,1.0
1.4833,128.181705,37.927644,6997.5365256,-1.822,-1.268,358.474,1.0
1.5,128.181703,37.927689,6997.4575824,-1.905,-1.281,358.478,1.0
1.5166,128.181702,37.927734,6997.377115200001,-1.989,-1.294,358.482,1.0
1.5333,128.1817,37.927779,6997.295428800001,-2.073,-1.307,358.487,1.0
1.55,128.181698,37.927824,6997.212828000001,-2.157,-1.319,358.491,1.0
1.5666,128.181696,37.927869,6997.1287032,-2.241,-1.332,358.495,1.0
1.5833,128.181694,37.927914,6997.043664000001,-2.326,-1.345,358.499,1.0
1.6,128.181692,37.927958,6996.957405600001,-2.411,-1.357,358.503,1.0
1.6166,128.18169,37.928003,6996.869928000001,-2.496,-1.37,358.507,1.0
1.6333,128.181688,37.928048,6996.781536,-2.582,-1.383,358.511,1.0
1.65,128.181686,37.928093,6996.6916200000005,-2.668,-1.396,358.516,1.0
1.6666,128.181685,37.928138,6996.6007896,-2.754,-1.408,358.52,1.0
1.6833,128.181683,37.928183,6996.50874,-2.84,-1.421,358.524,1.0
1.7,128.181681,37.928228,6996.4151664,-2.927,-1.434,358.528,1.0
1.7166,128.181679,37.928273,6996.3206784,-3.013,-1.446,358.532,1.0
1.7333,128.181677,37.928318,6996.225276,-3.101,-1.459,358.535,1.0
1.75,128.181675,37.928363,6996.128349600001,-3.188,-1.472,358.539,1.0
1.7666,128.181673,37.928408,6996.030204000001,-3.276,-1.484,358.543,1.0
1.7833,128.181671,37.928453,6995.931144,-3.364,-1.497,358.547,1.0
1.8,128.18167,37.928498,6995.8308648,-3.452,-1.51,358.551,1.0
1.8166,128.181668,37.928543,6995.7290616,-3.54,-1.522,358.555,1.0
1.8333,128.181666,37.928588,6995.626344,-3.629,-1.535,358.559,1.0
1.85,128.181664,37.928633,6995.5224072,-3.718,-1.548,358.562,1.0
1.8666,128.181662,37.928678,6995.417556,-3.807,-1.56,358.566,1.0
1.8833,128.18166,37.928723,6995.3111808,-3.897,-1.573,358.57,1.0
1.9,128.181658,37.928768,6995.2035864,-3.987,-1.586,358.574,1.0
1.9166,128.181656,37.928813,6995.095077600001,-4.077,-1.598,358.577,1.0
1.9333,128.181655,37.928858,6994.9850448,-4.167,-1.611,358.581,1.0
1.95,128.181653,37.928903,6994.874097600001,-4.258,-1.623,358.585,1.0
1.9666,128.181651,37.928949,6994.761931200001,-4.349,-1.636,358.588,1.0
1.9833,128.181649,37.928994,6994.6485456,-4.44,-1.649,358.592,1.0
2.0,128.181647,37.929039,6994.533636,-4.532,-1.661,358.596,1.0
2.0166,128.181645,37.929084,6994.417812,-4.623,-1.674,358.599,1.0
2.0333,128.181643,37.929129,6994.301073600001,-4.716,-1.686,358.603,1.0
2.05,128.181641,37.929174,6994.182811200001,-4.808,-1.699,358.606,1.0
2.0666,128.18164,37.929219,6994.0633296,-4.9,-1.711,358.61,1.0
2.0833,128.181638,37.929264,6993.9426288,-4.993,-1.724,358.613,1.0
2.1,128.181636,37.929309,6993.821013600001,-5.087,-1.737,358.617,1.0
2.1166,128.181634,37.929354,6993.697874400001,-5.18,-1.749,358.62,1.0
2.1333,128.181632,37.929399,6993.5738208,-5.274,-1.762,358.624,1.0
2.15,128.18163,37.929444,6993.4482431999995,-5.368,-1.774,358.627,1.0
2.1666,128.181628,37.929489,6993.321751200001,-5.462,-1.787,358.63,1.0
2.1833,128.181626,37.929534,6993.19404,-5.557,-1.799,358.634,1.0
2.2,128.181625,37.929579,6993.0651096,-5.651,-1.812,358.637,1.0
2.2166,128.181623,37.929624,6992.934655200001,-5.747,-1.824,358.64,1.0
2.2333,128.181621,37.929669,6992.803286400001,-5.842,-1.837,358.644,1.0
2.25,128.181619,37.929714,6992.6706984,-5.938,-1.849,358.647,1.0
2.2666,128.181617,37.929759,6992.5368912,-6.034,-1.862,358.65,1.0
2.2833,128.181615,37.929804,6992.401864800001,-6.13,-1.874,358.654,1.0
2.3,128.181613,37.929849,6992.2656192,-6.226,-1.887,358.657,1.0
2.3166,128.181611,37.929895,6992.1281544,-6.323,-1.899,358.66,1.0
2.3333,128.18161,37.92994,6991.9897752,-6.42,-1.911,358.663,1.0
2.35,128.181608,37.929985,6991.849872,-6.518,-1.924,358.666,1.0
2.3666,128.181606,37.93003,6991.7087496,-6.615,-1.936,358.67,1.0
2.3833,128.181604,37.930075,6991.566408,-6.713,-1.949,358.673,1.0
2.4,128.181602,37.93012,6991.4228472,-6.812,-1.961,358.676,1.0
2.4166,128.1816,37.930165,6991.278372,-6.91,-1.974,358.679,1.0
2.4333,128.181598,37.93021,6991.132372800001,-7.009,-1.986,358.682,1.0
2.45,128.181596,37.930255,6990.9851544,-7.108,-1.999,358.685,1.0
2.4666,128.181594,37.9303,6990.8370216,-7.207,-2.011,358.688,1.0
2.4833,128.181593,37.930345,6990.687364800001,-7.307,-2.023,358.691,1.0
2.5,128.181591,37.93039,6990.5364887999995,-7.407,-2.036,358.694,1.0
2.5166,128.181589,37.930436,6990.3846984,-7.507,-2.048,358.697,1.0
2.5333,128.181587,37.930481,6990.231384000001,-7.608,-2.061,358.7,1.0
2.55,128.181585,37.930526,6990.076850400001,-7.709,-2.073,358.703,1.0
2.5666,128.181583,37.930571,6989.921097600001,-7.81,-2.085,358.706,1.0
2.5833,128.181581,37.930616,6989.7644304,-7.911,-2.098,358.709,1.0
2.6,128.181579,37.930661,6989.6062392,-8.013,-2.11,358.712,1.0
2.6166,128.181578,37.930706,6989.446828800001,-8.115,-2.123,358.714,1.0
2.6333,128.181576,37.930751,6989.286504000001,-8.217,-2.135,358.717,1.0
2.65,128.181574,37.930797,6989.1246552,-8.32,-2.147,358.72,1.0
2.6666,128.181572,37.930842,6988.9615872,-8.422,-2.16,358.723,1.0
2.6833,128.18157,37.930887,6988.7973,-8.526,-2.172,358.726,1.0
2.7,128.181568,37.930932,6988.6317936,-8.629,-2.185,358.728,1.0
2.7166,128.181566,37.930977,6988.4653728,-8.733,-2.197,358.731,1.0
2.7333,128.181564,37.931022,6988.297428000001,-8.837,-2.209,358.734,1.0
2.75,128.181562,37.931067,6988.128264000001,-8.941,-2.222,358.737,1.0
2.7666,128.18156,37.931112,6987.9578808,-9.046,-2.234,358.739,1.0
2.7833,128.181559,37.931158,6987.786278400001,-9.15,-2.246,358.742,1.0
2.8,128.181557,37.931203,6987.613456800001,-9.256,-2.259,358.745,1.0
2.8166,128.181555,37.931248,6987.439111200001,-9.361,-2.271,358.747,1.0
2.8333,128.181553,37.931293,6987.2638512,-9.467,-2.284,358.75,1.0
2.85,128.181551,37.931338,6987.087372,-9.573,-2.296,358.753,1.0
2.8666,128.181549,37.931383,6986.9096736,-9.679,-2.308,358.755,1.0
2.8833,128.181547,37.931429,6986.730451200001,-9.786,-2.321,358.758,1.0
2.9,128.181545,37.931474,6986.5503144,-9.893,-2.333,358.76,1.0
2.9166,128.181543,37.931519,6986.3686536000005,-10.0,-2.345,358.763,1.0
2.9333,128.181542,37.931564,6986.186078400001,-10.107,-2.358,358.765,1.0
2.95,128.18154,37.931609,6986.001979200001,-10.215,-2.37,358.768,1.0
2.9666,128.181538,37.931654,6985.816660800001,-10.323,-2.382,358.77,1.0
2.9833,128.181536,37.9317,6985.6301232000005,-10.431,-2.395,358.773,1.0
3.0,128.181534,37.931745,6985.4423664,-10.54,-2.407,358.775,1.0
3.0166,128.181532,37.93179,6985.2533904,-10.649,-2.419,358.778,1.0
3.0333,128.18153,37.931835,6985.0631952,-10.758,-2.432,358.78,1.0
3.05,128.181528,37.93188,6984.8717808,-10.868,-2.444,358.782,1.0
3.0666,128.181526,37.931926,6984.6791472,-10.977,-2.456,358.785,1.0
3.0833,128.181524,37.931971,6984.4849896,-11.087,-2.469,358.787,1.0
3.1,128.181522,37.932016,6984.2899176,-11.198,-2.481,358.789,1.0
3.1166,128.18152,37.932061,6984.0933216,-11.308,-2.493,358.792,1.0
3.1333,128.181519,37.932107,6983.895506400001,-11.419,-2.506,358.794,1.0
3.15,128.181517,37.932152,6983.6964720000005,-11.53,-2.518,358.796,1.0
3.1666,128.181515,37.932197,6983.4962184000005,-11.642,-2.53,358.798,1.0
3.1833,128.181513,37.932242,6983.2947456,-11.753,-2.542,358.801,1.0
3.2,128.181511,37.932287,6983.0908344,-11.845,-2.554,358.804,1.0
3.2166,128.181509,37.932333,6982.8847896,-11.916,-2.566,358.808,1.0
3.2333,128.181507,37.932378,6982.6772208,-11.97,-2.577,358.814,1.0
3.25,128.181505,37.932423,6982.468128,-12.007,-2.588,358.819,1.0
3.2666,128.181503,37.932468,6982.2572064000005,-12.031,-2.6,358.823,1.0
3.2833,128.181501,37.932514,6982.0444560000005,-12.043,-2.611,358.828,1.0
3.3,128.181499,37.932559,6981.8304864,-12.045,-2.623,358.832,1.0
3.3166,128.181497,37.932604,6981.614688000001,-12.039,-2.635,358.836,1.0
3.3333,128.181495,37.932649,6981.397670400001,-12.027,-2.647,358.839,1.0
3.35,128.181494,37.932695,6981.1788240000005,-12.01,-2.659,358.842,1.0
3.3666,128.181492,37.93274,6980.9587584,-11.988,-2.672,358.844,1.0
3.3833,128.18149,37.932785,6980.7374736,-11.963,-2.684,358.847,1.0
3.4,128.181488,37.932831,6980.51436,-11.935,-2.697,358.849,1.0
3.4166,128.181486,37.932876,6980.290027200001,-11.905,-2.71,358.851,1.0
3.4333,128.181484,37.932921,6980.064170400001,-11.873,-2.723,358.853,1.0
3.45,128.181482,37.932966,6979.8370944,-11.84,-2.737,358.855,1.0
3.4666,128.18148,37.933012,6979.6084944,-11.806,-2.75,358.857,1.0
3.4833,128.181478,37.933057,6979.3786752,-11.772,-2.764,358.859,1.0
3.5,128.181476,37.933102,6979.1473320000005,-11.736,-2.778,358.861,1.0
3.5166,128.181474,37.933148,6978.914769600001,-11.7,-2.791,358.862,1.0
3.5333,128.181472,37.933193,6978.680683200001,-11.663,-2.805,358.864,1.0
3.55,128.18147,37.933238,6978.4453776,-11.627,-2.819,358.865,1.0
3.5666,128.181468,37.933284,6978.208548,-11.59,-2.833,358.867,1.0
3.5833,128.181466,37.933329,6977.9704992,-11.553,-2.848,358.868,1.0
3.6,128.181465,37.933374,6977.7309264000005,-11.516,-2.862,358.87,1.0
3.6166,128.181463,37.93342,6977.4901344,-11.478,-2.876,358.871,1.0
3.6333,128.181461,37.933465,6977.2478184,-11.441,-2.891,358.872,1.0
3.65,128.181459,37.93351,6977.004283200001,-11.404,-2.905,358.874,1.0
3.6666,128.181457,37.933556,6976.759224,-11.366,-2.92,358.875,1.0
3.6833,128.181455,37.933601,6976.5129456,-11.329,-2.934,358.876,1.0
3.7,128.181453,37.933646,6976.265448,-11.291,-2.949,358.877,1.0
3.7166,128.181451,37.933692,6976.0164264000005,-11.254,-2.964,358.879,1.0
3.7333,128.181449,37.933737,6975.7661856,-11.217,-2.979,358.88,1.0
3.75,128.181447,37.933783,6975.5144208,-11.179,-2.994,358.881,1.0
3.7666,128.181445,37.933828,6975.2611320000005,-11.142,-3.008,358.882,1.0
3.7833,128.181443,37.933873,6975.0069288,-11.105,-3.023,358.883,1.0
3.8,128.181441,37.933919,6974.750896800001,-11.068,-3.038,358.884,1.0
3.8166,128.181439,37.933964,6974.4939504,-11.03,-3.054,358.885,1.0
3.8333,128.181437,37.934009,6974.23548,-10.993,-3.069,358.886,1.0
3.85,128.181435,37.934055,6973.9754856,-10.956,-3.084,358.887,1.0
3.8666,128.181433,37.9341,6973.714272,-10.919,-3.099,358.888,1.0
3.8833,128.181431,37.934146,6973.4518392,-10.882,-3.114,358.889,1.0
3.9,128.181429,37.934191,6973.1878824000005,-10.845,-3.13,358.89,1.0
3.9166,128.181427,37.934237,6972.922706400001,-10.809,-3.145,358.891,1.0
3.9333,128.181425,37.934282,6972.6560064000005,-10.772,-3.16,358.892,1.0
3.95,128.181423,37.934327,6972.388087200001,-10.735,-3.176,358.893,1.0
3.9666,128.181422,37.934373,6972.118644,-10.699,-3.191,358.894,1.0
3.9833,128.18142,37.934418,6971.8479816,-10.663,-3.207,358.894,1.0
4.0,128.181418,37.934464,6971.5757952,-10.627,-3.222,358.895,1.0
4.0166,128.181416,37.934509,6971.3023896,-10.59,-3.238,358.896,1.0
4.0333,128.181414,37.934555,6971.027764800001,-10.555,-3.254,358.897,1.0
4.05,128.181412,37.9346,6970.751616,-10.519,-3.269,358.898,1.0
4.0666,128.18141,37.934646,6970.4739432,-10.483,-3.285,358.898,1.0
4.0833,128.181408,37.934691,6970.195356000001,-10.447,-3.301,358.899,1.0
4.1,128.181406,37.934736,6969.914940000001,-10.412,-3.317,358.9,1.0
4.1166,128.181404,37.934782,6969.6336096,-10.377,-3.332,358.9,1.0
4.1333,128.181402,37.934827,6969.3504504,-10.341,-3.348,358.901,1.0
4.15,128.1814,37.934873,6969.0663768,-10.306,-3.364,358.902,1.0
4.1666,128.181398,37.934918,6968.780779200001,-10.272,-3.38,358.902,1.0
4.1833,128.181396,37.934964,6968.4936576,-10.237,-3.396,358.903,1.0
4.2,128.181394,37.935009,6968.2053168,-10.203,-3.412,358.904,1.0
4.2166,128.181392,37.935055,6967.915452000001,-10.168,-3.429,358.904,1.0
4.2333,128.18139,37.9351,6967.624368000001,-10.134,-3.445,358.905,1.0
4.25,128.181388,37.935146,6967.332064800001,-10.1,-3.461,358.906,1.0
4.2666,128.181386,37.935191,6967.038237600001,-10.067,-3.478,358.906,1.0
4.2833,128.181384,37.935237,6966.7431912,-10.033,-3.494,358.907,1.0
4.3,128.181382,37.935283,6966.446620799999,-10.0,-3.51,358.907,1.0
4.3166,128.18138,37.935328,6966.1485264,-9.967,-3.527,358.908,1.0
4.3333,128.181378,37.935374,6965.8492128,-9.935,-3.543,358.908,1.0
4.35,128.181376,37.935419,6965.54868,-9.902,-3.56,358.909,1.0
4.3666,128.181374,37.935465,6965.246623200001,-9.87,-3.577,358.909,1.0
4.3833,128.181372,37.93551,6964.943347200001,-9.838,-3.593,358.91,1.0
4.4,128.18137,37.935556,6964.638547200001,-9.805,-3.61,358.91,1.0
4.4166,128.181368,37.935601,6964.3322232,-9.774,-3.627,358.911,1.0
4.4333,128.181366,37.935647,6964.0246799999995,-9.742,-3.644,358.912,1.0
4.45,128.181364,37.935693,6963.7159176000005,-9.71,-3.66,358.912,1.0
4.4666,128.181362,37.935738,6963.4056312,-9.679,-3.677,358.913,1.0
4.4833,128.18136,37.935784,6963.0938208,-9.648,-3.694,358.913,1.0
4.5,128.181358,37.935829,6962.780791200001,-9.617,-3.711,358.914,1.0
4.5166,128.181356,37.935875,6962.4665424,-9.585,-3.728,358.914,1.0
4.5333,128.181354,37.935921,6962.150464800001,-9.555,-3.745,358.914,1.0
4.55,128.181353,37.935966,6961.8334728,-9.524,-3.762,358.915,1.0
4.5666,128.181351,37.936012,6961.514652000001,-9.493,-3.779,358.915,1.0
4.5833,128.181349,37.936057,6961.194612,-9.463,-3.796,358.916,1.0
4.6,128.181347,37.936103,6960.8733528,-9.432,-3.814,358.916,1.0
4.6166,128.181345,37.936149,6960.550569600001,-9.402,-3.831,358.917,1.0
4.6333,128.181343,37.936194,6960.2262624,-9.373,-3.848,358.917,1.0
4.65,128.181341,37.93624,6959.9007360000005,-9.343,-3.865,358.918,1.0
4.6666,128.181339,37.936286,6959.5736856,-9.314,-3.883,358.918,1.0
4.6833,128.181337,37.936331,6959.245416,-9.285,-3.9,358.918,1.0
4.7,128.181335,37.936377,6958.9156224,-9.256,-3.918,358.919,1.0
4.7166,128.181333,37.936423,6958.584304800001,-9.227,-3.935,358.919,1.0
4.7333,128.181331,37.936468,6958.251768,-9.199,-3.953,358.92,1.0
4.75,128.181329,37.936514,6957.9177072,-9.17,-3.97,358.92,1.0
4.7666,128.181327,37.93656,6957.5824272,-9.143,-3.988,358.921,1.0
4.7833,128.181325,37.936605,6957.2456232,-9.115,-4.005,358.921,1.0
4.8,128.181323,37.936651,6956.907295200001,-9.088,-4.023,358.921,1.0
4.8166,128.181321,37.936697,6956.5674432,-9.061,-4.041,358.922,1.0
4.8333,128.181319,37.936742,6956.226372,-9.034,-4.058,358.922,1.0
4.85,128.181317,37.936788,6955.8840816,-9.007,-4.076,358.922,1.0
4.8666,128.181315,37.936834,6955.5399624,-8.981,-4.094,358.923,1.0
4.8833,128.181313,37.93688,6955.194624000001,-8.955,-4.112,358.923,1.0
4.9,128.181311,37.936925,6954.8480664,-8.929,-4.129,358.924,1.0
