Time,Longitude,Latitude,Altitude,Roll (deg),Pitch (deg),Yaw (deg),Health
0.0,128.181861,37.923644,6999.6228816,-3.0,-3.003,350.0,1.0
0.0166,128.181851,37.923688,6999.374774400001,-3.0,-3.012,350.0,1.0
0.0333,128.181841,37.923733,6999.125448,-2.999,-3.028,350.004,1.0
0.05,128.181831,37.923777,6998.874292800001,-2.987,-3.044,350.011,1.0
0.0666,128.181821,37.923821,6998.6231376000005,-2.985,-3.062,350.019,1.0
0.0833,128.181812,37.923865,6998.3713728,-2.993,-3.08,350.027,1.0
0.1,128.181802,37.923909,6998.1189984,-3.008,-3.098,350.035,1.0
0.1166,128.181792,37.923954,6997.865709600001,-3.03,-3.116,350.043,1.0
0.1333,128.181782,37.923998,6997.611811200001,-3.058,-3.135,350.051,1.0
0.15,128.181772,37.924042,6997.3569984,-3.092,-3.153,350.058,1.0
0.1666,128.181762,37.924086,6997.1012712,-3.129,-3.171,350.066,1.0
0.1833,128.181752,37.92413,6996.8449344,-3.171,-3.189,350.074,1.0
0.2,128.181742,37.924175,6996.5876832,-3.217,-3.207,350.081,1.0
0.2166,128.181732,37.924219,6996.3295176,-3.265,-3.224,350.089,1.0
0.2333,128.181723,37.924263,6996.0704376,-3.316,-3.241,350.097,1.0
0.25,128.181713,37.924307,6995.8104432,-3.368,-3.258,350.105,1.0
0.2666,128.181703,37.924351,6995.5492296,-3.423,-3.275,350.112,1.0
0.2833,128.181693,37.924396,6995.287406400001,-3.48,-3.292,350.12,1.0
0.3,128.181683,37.92444,6995.024364000001,-3.538,-3.308,350.128,1.0
0.3166,128.181673,37.924484,6994.760712,-3.597,-3.324,350.135,1.0
0.3333,128.181663,37.924528,6994.4958408,-3.658,-3.34,350.143,1.0
0.35,128.181653,37.924572,6994.229750400001,-3.72,-3.355,350.15,1.0
0.3666,128.181643,37.924617,6993.963050400001,-3.783,-3.371,350.157,1.0
0.3833,128.181633,37.924661,6993.6951312,-3.847,-3.386,350.165,1.0
0.4,128.181624,37.924705,6993.425992800001,-3.911,-3.401,350.172,1.0
0.4166,128.181614,37.924749,6993.155940000001,-3.977,-3.416,350.179,1.0
0.4333,128.181604,37.924793,6992.8849728000005,-4.044,-3.431,350.186,1.0
0.45,128.181594,37.924838,6992.6127864,-4.111,-3.446,350.193,1.0
0.4666,128.181584,37.924882,6992.3396856,-4.179,-3.461,350.2,1.0
0.4833,128.181574,37.924926,6992.0653656,-4.248,-3.475,350.207,1.0
0.5,128.181564,37.92497,6991.7901312,-4.318,-3.489,350.213,1.0
0.5166,128.181554,37.925014,6991.513677600001,-4.388,-3.504,350.22,1.0
0.5333,128.181544,37.925059,6991.236309600001,-4.459,-3.518,350.226,1.0
0.55,128.181534,37.925103,6990.957417600001,-4.531,-3.532,350.233,1.0
0.5666,128.181524,37.925147,6990.677916,-4.603,-3.546,350.239,1.0
0.5833,128.181515,37.925191,6990.3971952,-4.676,-3.56,350.246,1.0
0.6,128.181505,37.925236,6990.1152552,-4.749,-3.574,350.252,1.0
0.6166,128.181495,37.92528,6989.832096,-4.824,-3.588,350.258,1.0
0.6333,128.181485,37.925324,6989.5480224,-4.899,-3.602,350.264,1.0
0.65,128.181475,37.925368,6989.2627296,-4.974,-3.615,350.27,1.0
0.6666,128.181465,37.925412,6988.9762176,-5.05,-3.629,350.276,1.0
0.6833,128.181455,37.925457,6988.6887912,-5.127,-3.642,350.282,1.0
0.7,128.181445,37.925501,6988.4001456000005,-5.204,-3.656,350.288,1.0
0.7166,128.181435,37.925545,6988.1102808000005,-5.282,-3.669,350.294,1.0
0.7333,128.181425,37.925589,6987.819196800001,-5.361,-3.683,350.3,1.0
0.75,128.181415,37.925634,6987.5271984,-5.44,-3.696,350.306,1.0
0.7666,128.181405,37.925678,6987.2339808,-5.519,-3.709,350.311,1.0
0.7833,128.181395,37.925722,6986.939544,-5.6,-3.723,350.317,1.0
0.8,128.181386,37.925766,6986.6438880000005,-5.68,-3.736,350.322,1.0
0.8166,128.181376,37.92581,6986.3470128,-5.762,-3.749,350.328,1.0
0.8333,128.181366,37.925855,6986.049223200001,-5.844,-3.762,350.333,1.0
0.85,128.181356,37.925899,6985.750214400001,-5.926,-3.776,350.338,1.0
0.8666,128.181346,37.925943,6985.4499864,-6.009,-3.789,350.344,1.0
0.8833,128.181336,37.925987,6985.147320000001,-6.07,-3.801,350.35,1.0
0.9,128.181326,37.926032,6984.842824800001,-6.109,-3.811,350.358,1.0
0.9166,128.181316,37.926076,6984.536500800001,-6.129,-3.822,350.367,1.0
0.9333,128.181306,37.92612,6984.2286527999995,-6.132,-3.831,350.375,1.0
0.95,128.181296,37.926164,6983.918976,-6.119,-3.841,350.383,1.0
0.9666,128.181286,37.926209,6983.6077752,-6.094,-3.851,350.391,1.0
0.9833,128.181276,37.926253,6983.295355200001,-6.058,-3.86,350.398,1.0
1.0,128.181266,37.926297,6982.9811064000005,-6.013,-3.87,350.404,1.0
1.0166,128.181256,37.926341,6982.665638400001,-5.961,-3.88,350.41,1.0
1.0333,128.181247,37.926386,6982.348646400001,-5.903,-3.89,350.416,1.0
1.05,128.181237,37.92643,6982.0301304,-5.84,-3.901,350.421,1.0
1.0666,128.181227,37.926474,6981.710395200001,-5.774,-3.911,350.426,1.0
1.0833,128.181217,37.926519,6981.389440800001,-5.705,-3.922,350.431,1.0
1.1,128.181207,37.926563,6981.0669624,-5.634,-3.934,350.436,1.0
1.1166,128.181197,37.926607,6980.7432648,-5.561,-3.945,350.44,1.0
1.1333,128.181187,37.926651,6980.418043199999,-5.486,-3.957,350.444,1.0
1.15,128.181177,37.926696,6980.0919072,-5.411,-3.968,350.449,1.0
1.1666,128.181167,37.92674,6979.764247200001,-5.334,-3.98,350.453,1.0
1.1833,128.181157,37.926784,6979.4350632000005,-5.258,-3.992,350.456,1.0
1.2,128.181147,37.926829,6979.104964800001,-5.181,-4.005,350.46,1.0
1.2166,128.181137,37.926873,6978.773342400001,-5.103,-4.017,350.464,1.0
1.2333,128.181127,37.926917,6978.4408056,-5.026,-4.029,350.467,1.0
1.25,128.181117,37.926961,6978.1067448,-4.948,-4.042,350.471,1.0
1.2666,128.181107,37.927006,6977.771464800001,-4.87,-4.055,350.474,1.0
1.2833,128.181097,37.92705,6977.4346608000005,-4.793,-4.068,350.478,1.0
1.3,128.181087,37.927094,6977.0969424,-4.715,-4.081,350.481,1.0
1.3166,128.181077,37.927139,6976.7577,-4.638,-4.094,350.484,1.0
1.3333,128.181068,37.927183,6976.417238400001,-4.561,-4.107,350.487,1.0
1.35,128.181058,37.927227,6976.0758624,-4.484,-4.12,350.49,1.0
1.3666,128.181048,37.927272,6975.7326576,-4.407,-4.133,350.493,1.0
1.3833,128.181038,37.927316,6975.3885384000005,-4.33,-4.147,350.496,1.0
1.4,128.181028,37.92736,6975.0432,-4.254,-4.16,350.499,1.0
1.4166,128.181018,37.927405,6974.6963376,-4.177,-4.174,350.502,1.0
1.4333,128.181008,37.927449,6974.348560800001,-4.101,-4.187,350.505,1.0
1.45,128.180998,37.927493,6973.9992600000005,-4.025,-4.201,350.508,1.0
1.4666,128.180988,37.927538,6973.6487400000005,-3.949,-4.215,350.511,1.0
1.4833,128.180978,37.927582,6973.2970008,-3.874,-4.229,350.513,1.0
1.5,128.180968,37.927626,6972.9440424,-3.798,-4.242,350.516,1.0
1.5166,128.180958,37.927671,6972.5898648,-3.723,-4.256,350.519,1.0
1.5333,128.180948,37.927715,6972.234468000001,-3.648,-4.27,350.521,1.0
1.55,128.180938,37.927759,6971.877547200001,-3.573,-4.284,350.524,1.0
1.5666,128.180928,37.927804,6971.519712,-3.498,-4.298,350.526,1.0
1.5833,128.180918,37.927848,6971.1603528,-3.423,-4.313,350.528,1.0
1.6,128.180908,37.927892,6970.7997744,-3.349,-4.327,350.531,1.0
1.6166,128.180898,37.927937,6970.4379768,-3.274,-4.341,350.533,1.0
1.6333,128.180888,37.927981,6970.074960000001,-3.2,-4.355,350.536,1.0
1.65,128.180878,37.928025,6969.710419200001,-3.126,-4.37,350.538,1.0
1.6666,128.180868,37.92807,6969.344964000001,-3.051,-4.384,350.54,1.0
1.6833,128.180859,37.928114,6968.9782896,-2.977,-4.398,350.542,1.0
1.7,128.180849,37.928158,6968.6100912,-2.903,-4.413,350.544,1.0
1.7166,128.180839,37.928203,6968.2406736,-2.829,-4.427,350.547,1.0
1.7333,128.180829,37.928247,6967.870036800001,-2.756,-4.442,350.549,1.0
1.75,128.180819,37.928292,6967.4981808,-2.682,-4.456,350.551,1.0
1.7666,128.180809,37.928336,6967.125105600001,-2.608,-4.471,350.553,1.0
1.7833,128.180799,37.92838,6966.7508112000005,-2.534,-4.486,350.555,1.0
1.8,128.180789,37.928425,6966.374992800001,-2.461,-4.5,350.557,1.0
1.8166,128.180779,37.928469,6965.9979552,-2.387,-4.515,350.559,1.0
1.8333,128.180769,37.928514,6965.6200032,-2.314,-4.53,350.56,1.0
1.85,128.180759,37.928558,6965.2405272000005,-2.24,-4.544,350.562,1.0
1.8666,128.180749,37.928602,6964.859832,-2.166,-4.559,350.564,1.0
1.8833,128.180739,37.928647,6964.4779176,-2.093,-4.574,350.566,1.0
1.9,128.180729,37.928691,6964.094479200001,-2.02,-4.589,350.568,1.0
1.9166,128.180719,37.928736,6963.7101264,-1.946,-4.604,350.569,1.0
1.9333,128.180709,37.92878,6963.3242496,-1.873,-4.618,350.571,1.0
1.95,128.180699,37.928824,6962.9371536,-1.799,-4.633,350.573,1.0
1.9666,128.180689,37.928869,6962.548838400001,-1.726,-4.648,350.574,1.0
1.9833,128.180679,37.928913,6962.159304,-1.652,-4.663,350.576,1.0
2.0,128.180669,37.928958,6961.7685504,-1.579,-4.678,350.578,1.0
2.0166,128.18066,37.929002,6961.3765776,-1.505,-4.693,350.579,1.0
2.0333,128.18065,37.929047,6960.9830808,-1.432,-4.708,350.581,1.0
2.05,128.18064,37.929091,6960.588364800001,-1.358,-4.723,350.582,1.0
2.0666,128.18063,37.929136,6960.1924296,-1.285,-4.738,350.584,1.0
2.0833,128.18062,37.92918,6959.7952752,-1.211,-4.753,350.585,1.0
2.1,128.18061,37.929224,6959.396901600001,-1.138,-4.768,350.587,1.0
2.1166,128.1806,37.929269,6958.997308800001,-1.064,-4.783,350.588,1.0
2.1333,128.18059,37.929313,6958.596192000001,-0.99,-4.799,350.59,1.0
2.15,128.18058,37.929358,6958.193856000001,-0.916,-4.814,350.591,1.0
2.1666,128.18057,37.929402,6957.7903008,-0.843,-4.829,350.593,1.0
2.1833,128.18056,37.929447,6957.3855264,-0.769,-4.844,350.594,1.0
2.2,128.18055,37.929491,6956.979532800001,-0.695,-4.859,350.595,1.0
2.2166,128.18054,37.929536,6956.572320000001,-0.621,-4.874,350.597,1.0
2.2333,128.18053,37.92958,6956.163583200001,-0.547,-4.89,350.598,1.0
2.25,128.18052,37.929625,6955.753627200001,-0.472,-4.905,350.599,1.0
2.2666,128.18051,37.929669,6955.342452000001,-0.398,-4.92,350.6,1.0
2.2833,128.1805,37.929714,6954.9300576,-0.324,-4.935,350.602,1.0
2.3,128.180491,37.929758,6954.516444,-0.249,-4.951,350.603,1.0
2.3166,128.180481,37.929803,6954.101306400001,-0.175,-4.966,350.604,1.0
2.3333,128.180471,37.929847,6953.6852544,-0.1,-4.981,350.605,1.0
2.35,128.180461,37.929892,6953.2676784000005,-0.026,-4.996,350.607,1.0
2.3666,128.180451,37.929936,6952.8488832,0.048,-5.012,350.608,1.0
2.3833,128.180441,37.929981,6952.428564000001,0.123,-5.027,350.609,1.0
2.4,128.180431,37.930025,6952.0073304,0.198,-5.042,350.61,1.0
2.4166,128.180421,37.93007,6951.5845728,0.273,-5.058,350.611,1.0
2.4333,128.180411,37.930114,6951.160596000001,0.349,-5.073,350.612,1.0
2.45,128.180401,37.930159,6950.7354000000005,0.424,-5.088,350.613,1.0
2.4666,128.180391,37.930203,6950.3089848,0.499,-5.104,350.614,1.0
2.4833,128.180381,37.930248,6949.8810456,0.575,-5.119,350.616,1.0
2.5,128.180371,37.930292,6949.451887200001,0.651,-5.135,350.617,1.0
2.5166,128.180361,37.930337,6949.0215096,0.727,-5.15,350.618,1.0
2.5333,128.180351,37.930381,6948.5899128,0.803,-5.165,350.619,1.0
2.55,128.180342,37.930426,6948.1570968000005,0.879,-5.181,350.62,1.0
2.5666,128.180332,37.930471,6947.722756800001,0.955,-5.196,350.621,1.0
2.5833,128.180322,37.930515,6947.287197600001,1.031,-5.212,350.622,1.0
2.6,128.180312,37.93056,6946.850419200001,1.108,-5.227,350.623,1.0
2.6166,128.180302,37.930604,6946.4124216,1.185,-5.242,350.624,1.0
2.6333,128.180292,37.930649,6945.9732048000005,1.262,-5.258,350.625,1.0
2.65,128.180282,37.930693,6945.532464000001,1.339,-5.273,350.626,1.0
2.6666,128.180272,37.930738,6945.090504,1.416,-5.289,350.627,1.0
2.6833,128.180262,37.930783,6944.647324800001,1.493,-5.304,350.628,1.0
2.7,128.180252,37.930827,6944.2026216,1.57,-5.32,350.628,1.0
2.7166,128.180242,37.930872,6943.757004,1.648,-5.335,350.629,1.0
2.7333,128.180232,37.930916,6943.3098624,1.726,-5.35,350.63,1.0
2.75,128.180223,37.930961,6942.8615016,1.804,-5.366,350.631,1.0
2.7666,128.180213,37.931006,6942.4116168,1.882,-5.381,350.632,1.0
2.7833,128.180203,37.93105,6941.9608176,1.96,-5.397,350.633,1.0
2.8,128.180193,37.931095,6941.5084944,2.039,-5.412,350.634,1.0
2.8166,128.180183,37.93114,6941.054952,2.117,-5.428,350.635,1.0
2.8333,128.180173,37.931184,6940.599885600001,2.196,-5.443,350.636,1.0
2.85,128.180163,37.931229,6940.1439048,2.275,-5.459,350.637,1.0
2.8666,128.180153,37.931273,6939.6864000000005,2.354,-5.474,350.637,1.0
2.8833,128.180143,37.931318,6939.227676,2.434,-5.49,350.638,1.0
2.9,128.180133,37.931363,6938.767732800001,2.513,-5.505,350.639,1.0
2.9166,128.180124,37.931407,6938.306265600001,2.593,-5.521,350.64,1.0
2.9333,128.180114,37.931452,6937.843579200001,2.673,-5.536,350.641,1.0
2.95,128.180104,37.931497,6937.3796736,2.753,-5.551,350.642,1.0
2.9666,128.180094,37.931541,6936.9145488,2.833,-5.567,350.643,1.0
2.9833,128.180084,37.931586,6936.4479,2.913,-5.582,350.643,1.0
3.0,128.180074,37.931631,6935.980032,2.994,-5.598,350.644,1.0
3.0166,128.180064,37.931675,6935.5109448,3.075,-5.613,350.645,1.0
3.0333,128.180054,37.93172,6935.040638400001,3.156,-5.629,350.646,1.0
3.05,128.180044,37.931765,6934.568808,3.237,-5.644,350.647,1.0
3.0666,128.180035,37.931809,6934.0957584,3.318,-5.66,350.647,1.0
3.0833,128.180025,37.931854,6933.6214896,3.4,-5.675,350.648,1.0
3.1,128.180015,37.931899,6933.146001600001,3.482,-5.691,350.649,1.0
3.1166,128.180005,37.931943,6932.6689896,3.564,-5.706,350.65,1.0
3.1333,128.179995,37.931988,6932.1907584,3.646,-5.722,350.651,1.0
3.15,128.179985,37.932033,6931.711308,3.728,-5.737,350.651,1.0
3.1666,128.179975,37.932078,6931.2303336,3.811,-5.752,350.652,1.0
3.1833,128.179965,37.932122,6930.74814,3.894,-5.768,350.653,1.0
3.2,128.179956,37.932167,6930.2647272,3.977,-5.783,350.654,1.0
3.2166,128.179946,37.932212,6929.780095200001,4.06,-5.799,350.655,1.0
3.2333,128.179936,37.932257,6929.2939392,4.144,-5.814,350.655,1.0
3.25,128.179926,37.932301,6928.806564,4.227,-5.83,350.656,1.0
3.2666,128.179916,37.932346,6928.317969600001,4.311,-5.845,350.657,1.0
3.2833,128.179906,37.932391,6927.827851200001,4.395,-5.861,350.658,1.0
3.3,128.179896,37.932436,6927.3365136,4.48,-5.876,350.659,1.0
3.3166,128.179886,37.93248,6926.843956800001,4.564,-5.891,350.659,1.0
3.3333,128.179877,37.932525,6926.3501808,4.649,-5.907,350.66,1.0
3.35,128.179867,37.93257,6925.8548808000005,4.734,-5.922,350.661,1.0
3.3666,128.179857,37.932615,6925.3583616,4.819,-5.938,350.662,1.0
3.3833,128.179847,37.932659,6924.8606232,4.905,-5.953,350.663,1.0
3.4,128.179837,37.932704,6924.3613608000005,4.99,-5.968,350.663,1.0
3.4166,128.179827,37.932749,6923.8608792,5.076,-5.984,350.664,1.0
3.4333,128.179818,37.932794,6923.359178400001,5.162,-5.999,350.665,1.0
3.45,128.179808,37.932839,6922.8562584,5.249,-6.015,350.666,1.0
3.4666,128.179798,37.932883,6922.351814400001,5.336,-6.03,350.666,1.0
3.4833,128.179788,37.932928,6921.8461512,5.423,-6.046,350.667,1.0
3.5,128.179778,37.932973,6921.3389640000005,5.51,-6.061,350.668,1.0
3.5166,128.179768,37.933018,6920.8308624,5.597,-6.076,350.669,1.0
3.5333,128.179758,37.933063,6920.3212368,5.685,-6.092,350.67,1.0
3.55,128.179749,37.933107,6919.8100872,5.773,-6.107,350.67,1.0
3.5666,128.179739,37.933152,6919.298023200001,5.861,-6.123,350.671,1.0
3.5833,128.179729,37.933197,6918.7844352,5.95,-6.138,350.672,1.0
3.6,128.179719,37.933242,6918.2693232,6.039,-6.154,350.673,1.0
3.6166,128.179709,37.933287,6917.752992000001,6.128,-6.169,350.674,1.0
3.6333,128.1797,37.933332,6917.235746400001,6.218,-6.185,350.674,1.0
3.65,128.17969,37.933377,6916.7166720000005,6.308,-6.2,350.675,1.0
3.6666,128.17968,37.933421,6916.196683200001,6.398,-6.215,350.676,1.0
3.6833,128.17967,37.933466,6915.675170400001,6.488,-6.231,350.677,1.0
3.7,128.17966,37.933511,6915.1521336000005,6.579,-6.246,350.678,1.0
3.7166,128.17965,37.933556,6914.628182400001,6.67,-6.262,350.678,1.0
3.7333,128.179641,37.933601,6914.1027072,6.761,-6.277,350.679,1.0
3.75,128.179631,37.933646,6913.575708,6.853,-6.292,350.68,1.0
3.7666,128.179621,37.933691,6913.0477944,6.944,-6.308,350.681,1.0
3.7833,128.179611,37.933736,6912.518356800001,7.037,-6.323,350.682,1.0
3.8,128.179601,37.933781,6911.987395200001,7.129,-6.338,350.683,1.0
3.8166,128.179592,37.933825,6911.455519200001,7.222,-6.354,350.683,1.0
3.8333,128.179582,37.93387,6910.9221192,7.315,-6.369,350.684,1.0
3.85,128.179572,37.933915,6910.3871952,7.408,-6.384,350.685,1.0
3.8666,128.179562,37.93396,6909.851052000001,7.501,-6.399,350.686,1.0
3.8833,128.179552,37.934005,6909.3136896,7.595,-6.415,350.687,1.0
3.9,128.179543,37.93405,6908.775108,7.689,-6.43,350.688,1.0
3.9166,128.179533,37.934095,6908.2350024,7.784,-6.445,350.689,1.0
3.9333,128.179523,37.93414,6907.6936776,7.878,-6.46,350.689,1.0
3.95,128.179513,37.934185,6907.151133600001,7.973,-6.476,350.69,1.0
3.9666,128.179504,37.93423,6906.607065600001,8.068,-6.491,350.691,1.0
3.9833,128.179494,37.934275,6906.061778400001,8.163,-6.506,350.692,1.0
4.0,128.179484,37.93432,6905.5149672,8.259,-6.522,350.693,1.0
4.0166,128.179474,37.934365,6904.9669368,8.355,-6.537,350.694,1.0
4.0333,128.179464,37.93441,6904.417687200001,8.451,-6.552,350.695,1.0
4.05,128.179455,37.934455,6903.866913600001,8.547,-6.567,350.695,1.0
4.0666,128.179445,37.9345,6903.3149207999995,8.644,-6.583,350.696,1.0
4.0833,128.179435,37.934545,6902.761708800001,8.741,-6.598,350.697,1.0
4.1,128.179425,37.93459,6902.206972800001,8.838,-6.613,350.698,1.0
4.1166,128.179416,37.934635,6901.6510176,8.935,-6.628,350.699,1.0
4.1333,128.179406,37.93468,6901.093843199999,9.033,-6.644,350.7,1.0
4.15,128.179396,37.934725,6900.5351448,9.131,-6.659,350.701,1.0
4.1666,128.179386,37.93477,6899.9752272000005,9.229,-6.674,350.702,1.0
4.1833,128.179377,37.934815,6899.4137856,9.327,-6.689,350.703,1.0
4.2,128.179367,37.93486,6898.8511248,9.426,-6.705,350.704,1.0
4.2166,128.179357,37.934905,6898.2872448,9.525,-6.72,350.705,1.0
4.2333,128.179347,37.93495,6897.7218408,9.624,-6.735,350.706,1.0
4.25,128.179338,37.934995,6897.1552176000005,9.724,-6.75,350.706,1.0
4.2666,128.179328,37.93504,6896.5873752,9.823,-6.766,350.707,1.0
4.2833,128.179318,37.935085,6896.018008800001,9.923,-6.781,350.708,1.0
4.3,128.179309,37.93513,6895.4474232,10.024,-6.796,350.709,1.0
4.3166,128.179299,37.935175,6894.8753136000005,10.124,-6.811,350.71,1.0
4.3333,128.179289,37.935221,6894.3019848,10.225,-6.827,350.711,1.0
4.35,128.179279,37.935266,6893.727436800001,10.326,-6.842,350.712,1.0
4.3666,128.17927,37.935311,6893.151364800001,10.428,-6.857,350.713,1.0
4.3833,128.17926,37.935356,6892.574073600001,10.529,-6.872,350.714,1.0
4.4,128.17925,37.935401,6891.9952584,10.631,-6.888,350.715,1.0
4.4166,128.179241,37.935446,6891.415224,10.733,-6.903,350.716,1.0
4.4333,128.179231,37.935491,6890.833970400001,10.836,-6.918,350.717,1.0
4.45,128.179221,37.935536,6890.251192800001,10.939,-6.933,350.718,1.0
4.4666,128.179211,37.935581,6889.6668912000005,11.042,-6.949,350.719,1.0
4.4833,128.179202,37.935627,6889.0816752,11.145,-6.964,350.72,1.0
4.5,128.179192,37.935672,6888.4949352,11.249,-6.979,350.721,1.0
4.5166,128.179182,37.935717,6887.9066712,11.353,-6.995,350.722,1.0
4.5333,128.179173,37.935762,6887.317188000001,11.457,-7.01,350.723,1.0
4.55,128.179163,37.935807,6886.727400000001,11.54,-7.027,350.723,1.0
4.5666,128.179153,37.935852,6886.1370024,11.603,-7.044,350.721,1.0
4.5833,128.179144,37.935898,6885.5453856,11.648,-7.063,350.718,1.0
4.6,128.179134,37.935943,6884.9528544,11.676,-7.083,350.716,1.0
4.6166,128.179124,37.935988,6884.3594088,11.691,-7.103,350.713,1.0
4.6333,128.179115,37.936033,6883.7650488,11.694,-7.123,350.711,1.0
4.65,128.179105,37.936078,6883.1694696,11.687,-7.142,350.71,1.0
4.6666,128.179095,37.936124,6882.5726712,11.672,-7.162,350.709,1.0
4.6833,128.179086,37.936169,6881.9746536,11.652,-7.182,350.708,1.0
4.7,128.179076,37.936214,6881.3754168,11.626,-7.201,350.707,1.0
4.7166,128.179066,37.936259,6880.7749608,11.597,-7.22,350.707,1.0
4.7333,128.179057,37.936304,6880.1732856,11.564,-7.239,350.708,1.0
4.75,128.179047,37.93635,6879.570391200001,11.529,-7.258,350.708,1.0
4.7666,128.179038,37.936395,6878.965972800001,11.492,-7.276,350.709,1.0
4.7833,128.179028,37.93644,6878.3603352,11.454,-7.295,350.71,1.0
4.8,128.179018,37.936485,6877.753478400001,11.415,-7.313,350.711,1.0
4.8166,128.179009,37.936531,6877.145097600001,11.375,-7.33,350.712,1.0
4.8333,128.178999,37.936576,6876.535497600001,11.334,-7.348,350.713,1.0
4.85,128.178989,37.936621,6875.924678400001,11.293,-7.365,350.714,1.0
4.8666,128.17898,37.936667,6875.3123352,11.252,-7.383,350.716,1.0
4.8833,128.17897,37.936712,6874.6984680000005,11.211,-7.4,350.718,1.0
4.9,128.178961,37.936757,6874.0833816,11.169,-7.417,350.719,1.0
