Time,Longitude,Latitude,Altitude,Roll (deg),Pitch (deg),Yaw (deg),Health
0.0,128.197121,37.931908,5837.2616808,2.0,-1.004,202.999,1.0
0.0166,128.197099,37.931867,5837.157744,2.0,-1.014,202.999,1.0
0.0333,128.197077,37.931825,5837.052283200001,2.099,-1.015,203.013,1.0
0.05,128.197055,37.931784,5836.9456032,2.293,-0.993,203.041,1.0
0.0666,128.197032,37.931742,5836.8377040000005,2.587,-0.931,203.078,1.0
0.0833,128.19701,37.931701,5836.727976,2.983,-0.817,203.121,1.0
0.1,128.196988,37.93166,5836.616724,3.481,-0.649,203.169,1.0
0.1166,128.196966,37.931618,5836.503338400001,4.079,-0.445,203.218,1.0
0.1333,128.196943,37.931577,5836.3878192,4.771,-0.219,203.27,1.0
0.15,128.196921,37.931535,5836.2698616,5.553,0.016,203.322,1.0
0.1666,128.196899,37.931494,5836.149770400001,6.419,0.255,203.377,1.0
0.1833,128.196876,37.931452,5836.028155200001,7.366,0.495,203.434,1.0
0.2,128.196854,37.931411,5835.905625599999,8.388,0.734,203.493,1.0
0.2166,128.196832,37.931369,5835.7821816000005,9.482,0.972,203.556,1.0
0.2333,128.196809,37.931328,5835.658128,10.645,1.208,203.623,1.0
0.25,128.196787,37.931286,5835.5340744000005,11.873,1.442,203.694,1.0
0.2666,128.196764,37.931245,5835.4106304,13.164,1.675,203.77,1.0
0.2833,128.196742,37.931203,5835.287491200001,14.515,1.907,203.852,1.0
0.3,128.19672,37.931162,5835.1655712,15.924,2.139,203.94,1.0
0.3166,128.196697,37.93112,5835.044870400001,17.389,2.37,204.034,1.0
0.3333,128.196675,37.931078,5834.9272176,18.888,2.604,204.135,1.0
0.35,128.196652,37.931037,5834.8129176,20.402,2.84,204.242,1.0
0.3666,128.19663,37.930995,5834.702275199999,21.916,3.08,204.355,1.0
0.3833,128.196607,37.930954,5834.5962048,23.413,3.322,204.474,1.0
0.4,128.196585,37.930912,5834.495316,24.883,3.566,204.6,1.0
0.4166,128.196562,37.93087,5834.400523200001,26.315,3.812,204.733,1.0
0.4333,128.196539,37.930829,5834.3121312,27.702,4.058,204.875,1.0
0.45,128.196517,37.930787,5834.2307496,29.039,4.306,205.025,1.0
0.4666,128.196494,37.930746,5834.156988000001,30.323,4.554,205.184,1.0
0.4833,128.196471,37.930704,5834.091456000001,31.55,4.801,205.351,1.0
0.5,128.196448,37.930663,5834.0332392,32.722,5.047,205.527,1.0
0.5166,128.196425,37.930621,5833.983252000001,33.839,5.292,205.71,1.0
0.5333,128.196402,37.93058,5833.9417992,34.902,5.534,205.901,1.0
0.55,128.196379,37.930538,5833.9082712,35.913,5.77,206.098,1.0
0.5666,128.196356,37.930497,5833.8829728,36.875,5.998,206.298,1.0
0.5833,128.196332,37.930456,5833.8662088,37.79,6.217,206.499,1.0
0.6,128.196309,37.930414,5833.857674400001,38.661,6.425,206.701,1.0
0.6166,128.196286,37.930373,5833.8573696,39.492,6.623,206.903,1.0
0.6333,128.196262,37.930332,5833.8652944,40.286,6.811,207.105,1.0
0.65,128.196239,37.930291,5833.8814488,41.047,6.989,207.307,1.0
0.6666,128.196215,37.930249,5833.9058328,41.778,7.158,207.507,1.0
0.6833,128.196191,37.930208,5833.938141600001,42.483,7.318,207.708,1.0
0.7,128.196167,37.930167,5833.97868,43.164,7.47,207.907,1.0
0.7166,128.196143,37.930126,5834.0271432,43.826,7.614,208.106,1.0
0.7333,128.196119,37.930085,5834.0835312,44.471,7.751,208.304,1.0
0.75,128.196095,37.930044,5834.1475392,45.102,7.882,208.501,1.0
0.7666,128.196071,37.930003,5834.219472,45.72,8.005,208.698,1.0
0.7833,128.196047,37.929962,5834.2993295999995,46.328,8.123,208.893,1.0
0.8,128.196022,37.929921,5834.3865024,46.925,8.236,209.089,1.0
0.8166,128.195998,37.92988,5834.4816,47.513,8.343,209.283,1.0
0.8333,128.195973,37.929839,5834.5843176,48.093,8.446,209.477,1.0
0.85,128.195948,37.929799,5834.6943504,48.665,8.544,209.671,1.0
0.8666,128.195924,37.929758,5834.8120032,49.229,8.638,209.863,1.0
0.8833,128.195899,37.929717,5834.9369712,49.786,8.728,210.056,1.0
0.9,128.195874,37.929677,5835.0695592,50.336,8.814,210.248,1.0
0.9166,128.195849,37.929636,5835.2091576,50.88,8.896,210.44,1.0
0.9333,128.195823,37.929595,5835.3560712,51.418,8.975,210.632,1.0
0.95,128.195798,37.929555,5835.5099952,51.949,9.051,210.823,1.0
0.9666,128.195773,37.929515,5835.6709296,52.474,9.124,211.015,1.0
0.9833,128.195747,37.929474,5835.839179200001,52.993,9.194,211.206,1.0
1.0,128.195721,37.929434,5836.014134399999,53.506,9.261,211.398,1.0
1.0166,128.195696,37.929394,5836.1961,54.013,9.326,211.589,1.0
1.0333,128.19567,37.929353,5836.3841616,54.585,9.383,211.784,1.0
1.05,128.195644,37.929313,5836.578319200001,55.219,9.432,211.982,1.0
1.0666,128.195618,37.929273,5836.7779632,55.907,9.477,212.182,1.0
1.0833,128.195591,37.929233,5836.9827888,56.639,9.519,212.382,1.0
1.1,128.195565,37.929193,5837.192796,57.404,9.558,212.581,1.0
1.1166,128.195539,37.929153,5837.4088992,58.192,9.596,212.78,1.0
1.1333,128.195512,37.929113,5837.6304887999995,58.992,9.632,212.977,1.0
1.15,128.195486,37.929073,5837.857564800001,59.794,9.667,213.174,1.0
1.1666,128.195459,37.929033,5838.090432,60.59,9.701,213.371,1.0
1.1833,128.195432,37.928994,5838.3290904000005,61.373,9.733,213.568,1.0
1.2,128.195405,37.928954,5838.5732352,62.136,9.763,213.765,1.0
1.2166,128.195378,37.928914,5838.8231712,62.875,9.791,213.962,1.0
1.2333,128.195351,37.928875,5839.078288799999,63.587,9.817,214.161,1.0
1.25,128.195323,37.928835,5839.3385880000005,64.269,9.841,214.36,1.0
1.2666,128.195296,37.928796,5839.6043736,64.919,9.864,214.561,1.0
1.2833,128.195268,37.928756,5839.875036,65.538,9.884,214.764,1.0
1.3,128.19524,37.928717,5840.15088,66.124,9.902,214.968,1.0
1.3166,128.195212,37.928678,5840.431296000001,66.678,9.918,215.173,1.0
1.3333,128.195184,37.928639,5840.716284000001,67.202,9.933,215.38,1.0
1.35,128.195156,37.9286,5841.0061488,67.697,9.945,215.587,1.0
1.3666,128.195128,37.928561,5841.299976,68.164,9.956,215.796,1.0
1.3833,128.195099,37.928522,5841.5983752,68.605,9.964,216.006,1.0
1.4,128.195071,37.928483,5841.9010416,69.022,9.972,216.217,1.0
1.4166,128.195042,37.928444,5842.207365600001,69.417,9.978,216.428,1.0
1.4333,128.195013,37.928406,5842.517956800001,69.792,9.983,216.639,1.0
1.45,128.194984,37.928367,5842.831900800001,70.149,9.987,216.851,1.0
1.4666,128.194955,37.928328,5843.150112,70.489,9.99,217.062,1.0
1.4833,128.194926,37.92829,5843.4713712,70.814,9.992,217.274,1.0
1.5,128.194896,37.928251,5843.7965928,71.126,9.993,217.485,1.0
1.5166,128.194867,37.928213,5844.1248624,71.427,9.993,217.696,1.0
1.5333,128.194837,37.928175,5844.4567896,71.717,9.993,217.907,1.0
1.55,128.194808,37.928137,5844.7917648,71.999,9.991,218.117,1.0
1.5666,128.194778,37.928099,5845.130092800001,72.273,9.989,218.327,1.0
1.5833,128.194748,37.928061,5845.4711640000005,72.54,9.986,218.536,1.0
1.6,128.194717,37.928023,5845.815588,72.801,9.983,218.745,1.0
1.6166,128.194687,37.927985,5846.162755200001,73.058,9.98,218.952,1.0
1.6333,128.194657,37.927947,5846.512665600001,73.313,9.981,219.158,1.0
1.65,128.194626,37.927909,5846.8653192,73.566,9.984,219.363,1.0
1.6666,128.194595,37.927871,5847.220716,73.815,9.991,219.565,1.0
1.6833,128.194565,37.927834,5847.578856000001,74.057,9.998,219.767,1.0
1.7,128.194534,37.927796,5847.9397392,74.29,10.007,219.968,1.0
1.7166,128.194503,37.927759,5848.303365600001,74.511,10.016,220.168,1.0
1.7333,128.194471,37.927722,5848.6694304,74.661,10.031,220.366,1.0
1.75,128.19444,37.927684,5849.038543199999,74.744,10.052,220.563,1.0
1.7666,128.194408,37.927647,5849.410704,74.768,10.076,220.758,1.0
1.7833,128.194377,37.92761,5849.7862176,74.742,10.101,220.953,1.0
1.8,128.194345,37.927573,5850.164169600001,74.678,10.125,221.149,1.0
1.8166,128.194313,37.927536,5850.545169600001,74.585,10.147,221.345,1.0
1.8333,128.194281,37.9275,5850.9289128,74.475,10.167,221.541,1.0
1.85,128.194249,37.927463,5851.3153992,74.355,10.186,221.737,1.0
1.8666,128.194216,37.927426,5851.704628800001,74.235,10.203,221.934,1.0
1.8833,128.194184,37.92739,5852.0962968,74.121,10.218,222.13,1.0
1.9,128.194151,37.927353,5852.4904032,74.018,10.233,222.326,1.0
1.9166,128.194118,37.927317,5852.886947999999,73.93,10.246,222.52,1.0
1.9333,128.194086,37.927281,5853.286236,73.859,10.26,222.714,1.0
1.95,128.194053,37.927244,5853.6879624,73.808,10.272,222.907,1.0
1.9666,128.194019,37.927208,5854.0921272000005,73.778,10.285,223.099,1.0
1.9833,128.193986,37.927172,5854.4987304,73.768,10.297,223.289,1.0
2.0,128.193953,37.927136,5854.9077720000005,73.778,10.309,223.478,1.0
2.0166,128.193919,37.9271,5855.319556800001,73.807,10.321,223.667,1.0
2.0333,128.193886,37.927065,5855.7334752,73.855,10.332,223.854,1.0
2.05,128.193852,37.927029,5856.150136800001,73.92,10.344,224.04,1.0
2.0666,128.193818,37.926993,5856.5692368,74.001,10.355,224.226,1.0
2.0833,128.193784,37.926958,5856.990470400001,74.096,10.366,224.41,1.0
2.1,128.19375,37.926922,5857.414447200001,74.203,10.377,224.595,1.0
2.1166,128.193716,37.926887,5857.8408624,74.321,10.387,224.779,1.0
2.1333,128.193682,37.926851,5858.269716,74.45,10.396,224.962,1.0
2.15,128.193647,37.926816,5858.701008,74.587,10.406,225.146,1.0
2.1666,128.193613,37.926781,5859.134738400001,74.731,10.414,225.329,1.0
2.1833,128.193578,37.926746,5859.5706024,74.882,10.422,225.512,1.0
2.2,128.193543,37.926711,5860.0089048,75.039,10.43,225.696,1.0
2.2166,128.193508,37.926676,5860.4493408,75.201,10.436,225.879,1.0
2.2333,128.193473,37.926641,5860.8922152000005,75.367,10.442,226.063,1.0
2.25,128.193438,37.926607,5861.3372232,75.536,10.448,226.247,1.0
2.2666,128.193402,37.926572,5861.784364800001,75.708,10.453,226.431,1.0
2.2833,128.193367,37.926537,5862.23364,75.883,10.457,226.615,1.0
2.3,128.193331,37.926503,5862.6850488,76.061,10.461,226.8,1.0
2.3166,128.193296,37.926469,5863.1385912000005,76.239,10.463,226.985,1.0
2.3333,128.19326,37.926434,5863.5939624,76.418,10.464,227.17,1.0
2.35,128.193224,37.9264,5864.0514672,76.597,10.463,227.356,1.0
2.3666,128.193188,37.926366,5864.510800800001,76.776,10.461,227.543,1.0
2.3833,128.193152,37.926332,5864.972268,76.954,10.456,227.731,1.0
2.4,128.193115,37.926298,5865.435564,77.132,10.449,227.919,1.0
2.4166,128.193079,37.926265,5865.9003840000005,77.31,10.441,228.107,1.0
2.4333,128.193043,37.926231,5866.367337600001,77.488,10.431,228.296,1.0
2.45,128.193006,37.926197,5866.835815200001,77.667,10.419,228.485,1.0
2.4666,128.192969,37.926164,5867.3058168,77.846,10.406,228.675,1.0
2.4833,128.192932,37.92613,5867.777342400001,78.027,10.393,228.865,1.0
2.5,128.192895,37.926097,5868.250696800001,78.208,10.378,229.055,1.0
2.5166,128.192858,37.926064,5868.725270400001,78.391,10.362,229.246,1.0
2.5333,128.192821,37.92603,5869.201368,78.574,10.346,229.436,1.0
2.55,128.192783,37.925997,5869.6786848,78.758,10.329,229.627,1.0
2.5666,128.192746,37.925964,5870.1575256,78.943,10.312,229.818,1.0
2.5833,128.192708,37.925932,5870.6375856,79.128,10.295,230.009,1.0
2.6,128.192671,37.925899,5871.118864800001,79.315,10.277,230.2,1.0
2.6166,128.192633,37.925866,5871.6010584000005,79.502,10.259,230.391,1.0
2.6333,128.192595,37.925834,5872.084776,79.69,10.241,230.582,1.0
2.65,128.192557,37.925801,5872.5691031999995,79.878,10.224,230.773,1.0
2.6666,128.192518,37.925769,5873.0549544000005,80.067,10.206,230.964,1.0
2.6833,128.19248,37.925736,5873.5414152,80.257,10.188,231.154,1.0
2.7,128.192442,37.925704,5874.028790400001,80.447,10.171,231.345,1.0
2.7166,128.192403,37.925672,5874.51708,80.638,10.154,231.536,1.0
2.7333,128.192364,37.92564,5875.005979200001,80.829,10.137,231.727,1.0
2.75,128.192326,37.925608,5875.4957928,81.02,10.121,231.917,1.0
2.7666,128.192287,37.925576,5875.9865208,81.211,10.105,232.108,1.0
2.7833,128.192248,37.925545,5876.4775536,81.403,10.09,232.298,1.0
2.8,128.192208,37.925513,5876.969500800001,81.595,10.075,232.489,1.0
2.8166,128.192169,37.925482,5877.4617528,81.787,10.06,232.679,1.0
2.8333,128.19213,37.92545,5877.9546144000005,81.979,10.047,232.869,1.0
2.85,128.19209,37.925419,5878.4477808,82.17,10.033,233.06,1.0
2.8666,128.192051,37.925388,5878.9415568,82.36,10.02,233.25,1.0
2.8833,128.192011,37.925357,5879.4356376000005,82.549,10.006,233.44,1.0
2.9,128.191971,37.925326,5879.930328,82.735,9.992,233.63,1.0
2.9166,128.191931,37.925295,5880.4250184,82.92,9.977,233.821,1.0
2.9333,128.191891,37.925264,5880.9200136,83.103,9.962,234.011,1.0
2.95,128.191851,37.925233,5881.4153136,83.285,9.946,234.202,1.0
2.9666,128.191811,37.925203,5881.9109184,83.464,9.93,234.393,1.0
2.9833,128.19177,37.925172,5882.4065232,83.641,9.913,234.584,1.0
3.0,128.19173,37.925142,5882.902128000001,83.817,9.895,234.775,1.0
3.0166,128.191689,37.925111,5883.3977328,83.991,9.877,234.966,1.0
3.0333,128.191648,37.925081,5883.8936424,84.163,9.859,235.157,1.0
3.05,128.191607,37.925051,5884.389247200001,84.334,9.84,235.348,1.0
3.0666,128.191566,37.925021,5884.884852000001,84.502,9.82,235.539,1.0
3.0833,128.191525,37.924991,5885.380152000001,84.669,9.8,235.73,1.0
3.1,128.191484,37.924962,5885.875452000001,84.834,9.78,235.921,1.0
3.1166,128.191443,37.924932,5886.370447200001,84.997,9.759,236.113,1.0
3.1333,128.191401,37.924902,5886.865137600001,85.158,9.737,236.304,1.0
3.15,128.19136,37.924873,5887.359828000001,85.317,9.715,236.495,1.0
3.1666,128.191318,37.924844,5887.8539088,85.474,9.693,236.687,1.0
3.1833,128.191276,37.924814,5888.3476848,85.629,9.67,236.878,1.0
3.2,128.191235,37.924785,5888.841156,85.782,9.647,237.069,1.0
3.2166,128.191193,37.924756,5889.3340176,85.933,9.623,237.261,1.0
3.2333,128.191151,37.924727,5889.826269600001,86.082,9.599,237.452,1.0
3.25,128.191108,37.924698,5890.3182168,86.229,9.574,237.644,1.0
3.2666,128.191066,37.92467,5890.809554400001,86.374,9.549,237.835,1.0
3.2833,128.191024,37.924641,5891.299977600001,86.516,9.524,238.027,1.0
3.3,128.190981,37.924613,5891.790096000001,86.656,9.498,238.218,1.0
3.3166,128.190938,37.924584,5892.2793,86.794,9.472,238.41,1.0
3.3333,128.190896,37.924556,5892.7678944,86.93,9.445,238.601,1.0
3.35,128.190853,37.924528,5893.255879200001,87.063,9.418,238.793,1.0
3.3666,128.19081,37.9245,5893.7429496,87.194,9.391,238.985,1.0
3.3833,128.190767,37.924472,5894.2291056,87.323,9.363,239.176,1.0
3.4,128.190724,37.924444,5894.714347200001,87.449,9.335,239.368,1.0
3.4166,128.19068,37.924416,5895.1989792,87.573,9.307,239.559,1.0
3.4333,128.190637,37.924389,5895.682392000001,87.695,9.278,239.751,1.0
3.45,128.190594,37.924361,5896.1651952,87.814,9.249,239.942,1.0
3.4666,128.19055,37.924334,5896.646779200001,87.931,9.22,240.134,1.0
3.4833,128.190506,37.924307,5897.127144,88.045,9.191,240.325,1.0
3.5,128.190463,37.924279,5897.6065944,88.157,9.161,240.516,1.0
3.5166,128.190419,37.924252,5898.0851304,88.267,9.131,240.708,1.0
3.5333,128.190375,37.924226,5898.562447200001,88.374,9.1,240.899,1.0
3.55,128.190331,37.924199,5899.0385448,88.479,9.07,241.091,1.0
3.5666,128.190286,37.924172,5899.5134232,88.581,9.039,241.282,1.0
3.5833,128.190242,37.924145,5899.987387200001,88.681,9.008,241.473,1.0
3.6,128.190198,37.924119,5900.4598272,88.779,8.976,241.665,1.0
3.6166,128.190153,37.924093,5900.9310479999995,88.875,8.945,241.856,1.0
3.6333,128.190108,37.924066,5901.4010496,88.968,8.913,242.047,1.0
3.65,128.190064,37.92404,5901.869832,89.06,8.881,242.238,1.0
3.6666,128.190019,37.924014,5902.3370904,89.149,8.849,242.429,1.0
3.6833,128.189974,37.923988,5902.8031296,89.236,8.816,242.62,1.0
3.7,128.189929,37.923962,5903.2676448,89.321,8.784,242.811,1.0
3.7166,128.189884,37.923937,5903.730636,89.404,8.751,243.002,1.0
3.7333,128.189839,37.923911,5904.192408,89.485,8.718,243.193,1.0
3.75,128.189793,37.923886,5904.652656,89.564,8.685,243.384,1.0
3.7666,128.189748,37.923861,5905.1116848,89.642,8.651,243.575,1.0
3.7833,128.189702,37.923835,5905.5688848,89.718,8.618,243.765,1.0
3.8,128.189657,37.92381,5906.0245608000005,89.792,8.584,243.956,1.0
3.8166,128.189611,37.923785,5906.4787128,89.864,8.55,244.147,1.0
3.8333,128.189565,37.92376,5906.931340800001,89.935,8.516,244.337,1.0
3.85,128.18952,37.923736,5907.3824448000005,90.004,8.482,244.528,1.0
3.8666,128.189474,37.923711,5907.832024800001,90.072,8.448,244.718,1.0
3.8833,128.189427,37.923687,5908.279776,90.139,8.413,244.908,1.0
3.9,128.189381,37.923662,5908.7260032,90.204,8.379,245.099,1.0
3.9166,128.189335,37.923638,5909.1704016,90.269,8.344,245.289,1.0
3.9333,128.189289,37.923614,5909.613276,90.331,8.309,245.479,1.0
3.95,128.189242,37.92359,5910.0543216,90.393,8.275,245.669,1.0
3.9666,128.189196,37.923566,5910.493538400001,90.454,8.24,245.859,1.0
3.9833,128.189149,37.923542,5910.9312312,90.514,8.204,246.049,1.0
4.0,128.189102,37.923518,5911.3670952,90.573,8.169,246.239,1.0
4.0166,128.189055,37.923495,5911.8011304,90.63,8.134,246.428,1.0
4.0333,128.189009,37.923471,5912.2333368,90.687,8.098,246.618,1.0
4.05,128.188962,37.923448,5912.663714400001,90.743,8.063,246.808,1.0
4.0666,128.188914,37.923425,5913.0922632,90.799,8.027,246.997,1.0
4.0833,128.188867,37.923402,5913.518983200001,90.853,7.991,247.187,1.0
4.1,128.18882,37.923379,5913.943874400001,90.907,7.955,247.376,1.0
4.1166,128.188773,37.923356,5914.3669368,90.96,7.919,247.565,1.0
4.1333,128.188725,37.923333,5914.787865600001,91.013,7.883,247.755,1.0
4.15,128.188678,37.923311,5915.2069656,91.065,7.847,247.944,1.0
4.1666,128.18863,37.923288,5915.6242368,91.116,7.811,248.133,1.0
4.1833,128.188582,37.923266,5916.039679200001,91.166,7.774,248.322,1.0
4.2,128.188534,37.923244,5916.452988000001,91.216,7.738,248.511,1.0
4.2166,128.188487,37.923222,5916.8641632,91.266,7.702,248.7,1.0
4.2333,128.188439,37.9232,5917.273509600001,91.314,7.665,248.889,1.0
4.25,128.188391,37.923178,5917.6807224,91.362,7.628,249.078,1.0
4.2666,128.188342,37.923156,5918.086106400001,91.41,7.592,249.266,1.0
4.2833,128.188294,37.923134,5918.489356800001,91.457,7.555,249.455,1.0
4.3,128.188246,37.923113,5918.8904736,91.504,7.518,249.644,1.0
4.3166,128.188198,37.923092,5919.289456800001,91.55,7.481,249.832,1.0
4.3333,128.188149,37.92307,5919.686611200001,91.595,7.444,250.021,1.0
4.35,128.188101,37.923049,5920.0813272000005,91.64,7.407,250.209,1.0
4.3666,128.188052,37.923028,5920.4742144,91.684,7.37,250.398,1.0
4.3833,128.188003,37.923007,5920.8646632,91.727,7.333,250.586,1.0
4.4,128.187954,37.922987,5921.253283200001,91.77,7.295,250.774,1.0
4.4166,128.187905,37.922966,5921.6394648000005,91.811,7.258,250.963,1.0
4.4333,128.187857,37.922945,5922.0238176,91.851,7.221,251.151,1.0
4.45,128.187807,37.922925,5922.405732,91.89,7.184,251.339,1.0
4.4666,128.187758,37.922905,5922.7855128,91.927,7.147,251.527,1.0
4.4833,128.187709,37.922885,5923.1628552,91.963,7.11,251.715,1.0
4.5,128.18766,37.922865,5923.5383688,91.998,7.072,251.904,1.0
4.5166,128.187611,37.922845,5923.911444,92.03,7.035,252.092,1.0
4.5333,128.187561,37.922825,5924.2820808,92.06,6.998,252.28,1.0
4.55,128.187512,37.922806,5924.6508888,92.089,6.961,252.468,1.0
4.5666,128.187462,37.922786,5925.0169536,92.115,6.924,252.656,1.0
4.5833,128.187412,37.922767,5925.3811896,92.139,6.888,252.844,1.0
4.6,128.187363,37.922747,5925.7426824,92.16,6.851,253.032,1.0
4.6166,128.187313,37.922728,5926.102346400001,92.178,6.814,253.22,1.0
4.6333,128.187263,37.922709,5926.4592672,92.194,6.778,253.408,1.0
4.65,128.187213,37.922691,5926.814054400001,92.206,6.742,253.597,1.0
4.6666,128.187163,37.922672,5927.166708,92.215,6.706,253.785,1.0
4.6833,128.187113,37.922653,5927.5166184,92.221,6.67,253.973,1.0
4.7,128.187063,37.922635,5927.8647,92.222,6.634,254.161,1.0
4.7166,128.187012,37.922616,5928.2100384000005,92.22,6.599,254.349,1.0
4.7333,128.186962,37.922598,5928.5532432,92.213,6.564,254.537,1.0
4.75,128.186912,37.92258,5928.894009600001,92.201,6.529,254.726,1.0
4.7666,128.186861,37.922562,5929.2323376,92.184,6.495,254.914,1.0
4.7833,128.186811,37.922544,5929.568532,92.161,6.461,255.102,1.0
4.8,128.18676,37.922527,5929.902288000001,92.132,6.428,255.291,1.0
4.8166,128.186709,37.922509,5930.2336056,92.097,6.395,255.479,1.0
4.8333,128.186659,37.922492,5930.5627896,92.055,6.362,255.667,1.0
4.85,128.186608,37.922475,5930.8895352,92.004,6.331,255.856,1.0
4.8666,128.186557,37.922457,5931.2138424,91.946,6.3,256.045,1.0
4.8833,128.186506,37.92244,5931.536016,91.879,6.269,256.233,1.0
4.9,128.186455,37.922424,5931.8560560000005,91.801,6.24,256.422,1.0
4.9166,128.186404,37.922407,5932.1736576,91.713,6.211,256.611,1.0
4.9333,128.186353,37.92239,5932.4888208,91.614,6.183,256.8,1.0
4.95,128.186302,37.922374,5932.8018504,91.502,6.156,256.989,1.0
