Time,Longitude,Latitude,Altitude,Roll (deg),Pitch (deg),Yaw (deg),Health
0.0,128.186502,37.932064,7060.6200672,0.0,-4.003,164.0,1.0
0.0166,128.186518,37.932021,7060.253392800001,0.0,-4.012,164.0,1.0
0.0333,128.186534,37.931978,7059.8867184,-0.085,-4.025,163.988,1.0
0.05,128.186549,37.931935,7059.520044,-0.254,-4.041,163.966,1.0
0.0666,128.186565,37.931892,7059.153979200001,-0.508,-4.059,163.936,1.0
0.0833,128.186581,37.931848,7058.7888288,-0.851,-4.077,163.902,1.0
0.1,128.186596,37.931805,7058.424897600001,-1.283,-4.095,163.868,1.0
0.1166,128.186612,37.931762,7058.062490400001,-1.801,-4.114,163.833,1.0
0.1333,128.186628,37.931719,7057.7016072,-2.403,-4.132,163.798,1.0
0.15,128.186643,37.931676,7057.3431624,-3.087,-4.149,163.765,1.0
0.1666,128.186659,37.931633,7056.987156000001,-3.848,-4.166,163.732,1.0
0.1833,128.186675,37.93159,7056.632978400001,-4.685,-4.182,163.701,1.0
0.2,128.186691,37.931546,7056.2809344,-5.593,-4.197,163.67,1.0
0.2166,128.186706,37.931503,7055.930719200001,-6.571,-4.212,163.641,1.0
0.2333,128.186722,37.93146,7055.5826376,-7.613,-4.226,163.612,1.0
0.25,128.186738,37.931417,7055.2363847999995,-8.719,-4.24,163.585,1.0
0.2666,128.186753,37.931374,7054.891960800001,-9.885,-4.253,163.558,1.0
0.2833,128.186769,37.931331,7054.549060800001,-11.108,-4.266,163.532,1.0
0.3,128.186785,37.931287,7054.2082944,-12.387,-4.278,163.507,1.0
0.3166,128.186801,37.931244,7053.869052000001,-13.718,-4.29,163.483,1.0
0.3333,128.186817,37.931201,7053.531638400001,-15.099,-4.302,163.46,1.0
0.35,128.186832,37.931158,7053.1957488,-16.529,-4.314,163.437,1.0
0.3666,128.186848,37.931115,7052.861383200001,-18.004,-4.326,163.416,1.0
0.3833,128.186864,37.931072,7052.528541600001,-19.523,-4.337,163.395,1.0
0.4,128.18688,37.931028,7052.1972240000005,-21.084,-4.349,163.375,1.0
0.4166,128.186896,37.930985,7051.8674304,-22.685,-4.361,163.356,1.0
0.4333,128.186912,37.930942,7051.538856000001,-24.324,-4.372,163.337,1.0
0.45,128.186928,37.930899,7051.211500800001,-26.0,-4.384,163.32,1.0
0.4666,128.186943,37.930856,7050.8856696,-27.71,-4.396,163.303,1.0
0.4833,128.186959,37.930812,7050.5607528,-29.453,-4.408,163.287,1.0
0.5,128.186975,37.930769,7050.2370552,-31.227,-4.421,163.272,1.0
0.5166,128.186991,37.930726,7049.914272,-33.032,-4.433,163.257,1.0
0.5333,128.187008,37.930683,7049.592708,-34.865,-4.445,163.243,1.0
0.55,128.187024,37.93064,7049.2717536,-36.726,-4.457,163.229,1.0
0.5666,128.18704,37.930597,7048.9517136,-38.612,-4.468,163.216,1.0
0.5833,128.187056,37.930553,7048.6322832000005,-40.523,-4.48,163.203,1.0
0.6,128.187072,37.93051,7048.3137672,-42.458,-4.491,163.191,1.0
0.6166,128.187088,37.930467,7047.995556000001,-44.416,-4.503,163.18,1.0
0.6333,128.187104,37.930424,7047.6779544,-46.394,-4.506,163.16,1.0
0.65,128.187121,37.930381,7047.3609624,-48.391,-4.497,163.128,1.0
0.6666,128.187137,37.930338,7047.043970400001,-50.407,-4.482,163.088,1.0
0.6833,128.187154,37.930295,7046.727588000001,-52.441,-4.462,163.041,1.0
0.7,128.18717,37.930251,7046.4112056,-54.492,-4.44,162.991,1.0
0.7166,128.187186,37.930208,7046.095128000001,-56.559,-4.418,162.938,1.0
0.7333,128.187203,37.930165,7045.7790504,-58.639,-4.389,162.872,1.0
0.75,128.187219,37.930122,7045.463277600001,-60.732,-4.354,162.792,1.0
0.7666,128.187236,37.930079,7045.1468952000005,-62.836,-4.317,162.704,1.0
0.7833,128.187253,37.930036,7044.8305128,-64.952,-4.28,162.61,1.0
0.8,128.187269,37.929993,7044.5138256,-67.079,-4.245,162.512,1.0
0.8166,128.187286,37.92995,7044.196224,-69.214,-4.213,162.412,1.0
0.8333,128.187303,37.929907,7043.8786224000005,-71.358,-4.18,162.299,1.0
0.85,128.18732,37.929864,7043.560106400001,-73.51,-4.145,162.167,1.0
0.8666,128.187337,37.929821,7043.240676,-75.67,-4.111,162.022,1.0
0.8833,128.187354,37.929778,7042.9200264,-77.837,-4.081,161.868,1.0
0.9,128.187371,37.929735,7042.5981576,-80.013,-4.055,161.711,1.0
0.9166,128.187388,37.929692,7042.2750696,-82.198,-4.036,161.553,1.0
0.9333,128.187406,37.929649,7041.949848,-84.385,-4.021,161.381,1.0
0.95,128.187423,37.929606,7041.6231024,-86.574,-4.01,161.19,1.0
0.9666,128.18744,37.929563,7041.293918400001,-88.765,-4.007,160.986,1.0
0.9833,128.187458,37.92952,7040.9626008000005,-90.958,-4.01,160.774,1.0
1.0,128.187476,37.929477,7040.62854,-93.154,-4.022,160.56,1.0
1.0166,128.187493,37.929434,7040.2914312,-95.352,-4.042,160.348,1.0
1.0333,128.187511,37.929391,7039.9509696000005,-97.499,-4.069,160.124,1.0
1.05,128.187529,37.929349,7039.6068504,-99.594,-4.104,159.882,1.0
1.0666,128.187547,37.929306,7039.259378400001,-101.643,-4.149,159.627,1.0
1.0833,128.187565,37.929263,7038.907944,-103.654,-4.205,159.368,1.0
1.1,128.187583,37.92922,7038.552547200001,-105.63,-4.272,159.109,1.0
1.1166,128.187601,37.929177,7038.1925784000005,-107.579,-4.349,158.855,1.0
1.1333,128.187619,37.929135,7037.8277328,-109.44,-4.437,158.592,1.0
1.15,128.187637,37.929092,7037.458010400001,-111.219,-4.537,158.314,1.0
1.1666,128.187656,37.929049,7037.083716,-112.925,-4.652,158.025,1.0
1.1833,128.187674,37.929007,7036.7039352,-114.569,-4.779,157.735,1.0
1.2,128.187693,37.928964,7036.318668,-116.162,-4.917,157.448,1.0
1.2166,128.187711,37.928921,7035.9276096,-117.711,-5.065,157.17,1.0
1.2333,128.18773,37.928879,7035.530150400001,-119.126,-5.222,156.885,1.0
1.25,128.187749,37.928836,7035.1265952,-120.414,-5.395,156.583,1.0
1.2666,128.187768,37.928793,7034.716944,-121.591,-5.583,156.271,1.0
1.2833,128.187786,37.928751,7034.300892,-122.671,-5.784,155.955,1.0
1.3,128.187805,37.928708,7033.878744,-123.67,-5.995,155.645,1.0
1.3166,128.187825,37.928666,7033.4492808,-124.6,-6.212,155.343,1.0
1.3333,128.187844,37.928623,7033.0125024,-125.494,-6.435,155.054,1.0
1.35,128.187863,37.928581,7032.5674944,-126.36,-6.661,154.779,1.0
1.3666,128.187882,37.928538,7032.1142568000005,-127.207,-6.89,154.518,1.0
1.3833,128.187902,37.928496,7031.65218,-128.039,-7.118,154.272,1.0
1.4,128.187921,37.928453,7031.181568800001,-128.862,-7.345,154.039,1.0
1.4166,128.187941,37.928411,7030.701204,-129.677,-7.571,153.82,1.0
1.4333,128.187961,37.928369,7030.2123048,-130.436,-7.793,153.611,1.0
1.45,128.18798,37.928326,7029.7142616,-131.141,-8.01,153.412,1.0
1.4666,128.188,37.928284,7029.207379200001,-131.798,-8.223,153.223,1.0
1.4833,128.18802,37.928242,7028.6916576,-132.414,-8.434,153.043,1.0
1.5,128.18804,37.928199,7028.1664872,-132.994,-8.643,152.873,1.0
1.5166,128.18806,37.928157,7027.6315632000005,-133.544,-8.849,152.712,1.0
1.5333,128.188081,37.928115,7027.0878,-134.046,-9.053,152.559,1.0
1.55,128.188101,37.928073,7026.534588,-134.505,-9.254,152.413,1.0
1.5666,128.188121,37.928031,7025.9716224,-134.926,-9.452,152.273,1.0
1.5833,128.188142,37.927989,7025.3989032,-135.316,-9.649,152.14,1.0
1.6,128.188162,37.927947,7024.8158207999995,-135.678,-9.843,152.014,1.0
1.6166,128.188183,37.927905,7024.22268,-136.017,-10.036,151.893,1.0
1.6333,128.188204,37.927863,7023.6197856,-136.328,-10.226,151.777,1.0
1.65,128.188224,37.927821,7023.0062232,-136.617,-10.415,151.666,1.0
1.6666,128.188245,37.927779,7022.381992800001,-136.884,-10.601,151.559,1.0
1.6833,128.188266,37.927737,7021.7473992000005,-137.135,-10.786,151.457,1.0
1.7,128.188287,37.927695,7021.102137600001,-137.37,-10.969,151.357,1.0
1.7166,128.188308,37.927653,7020.4459032,-137.593,-11.151,151.261,1.0
1.7333,128.188329,37.927611,7019.7790008,-137.803,-11.332,151.168,1.0
1.75,128.188351,37.927569,7019.1011256,-138.002,-11.51,151.078,1.0
1.7666,128.188372,37.927528,7018.4122776,-138.19,-11.688,150.99,1.0
1.7833,128.188394,37.927486,7017.712152000001,-138.37,-11.864,150.904,1.0
1.8,128.188415,37.927444,7017.0010536,-138.543,-12.04,150.82,1.0
1.8166,128.188437,37.927403,7016.2786776,-138.709,-12.214,150.738,1.0
1.8333,128.188458,37.927361,7015.545024000001,-138.868,-12.387,150.658,1.0
1.85,128.18848,37.92732,7014.800092800001,-139.022,-12.559,150.578,1.0
1.8666,128.188502,37.927278,7014.043579200001,-139.172,-12.73,150.5,1.0
1.8833,128.188524,37.927237,7013.275788000001,-139.316,-12.901,150.424,1.0
1.9,128.188546,37.927195,7012.4967192,-139.457,-13.07,150.348,1.0
1.9166,128.188568,37.927154,7011.706068,-139.594,-13.239,150.273,1.0
1.9333,128.18859,37.927113,7010.9038344,-139.728,-13.408,150.199,1.0
1.95,128.188612,37.927071,7010.0900184,-139.858,-13.575,150.125,1.0
1.9666,128.188634,37.92703,7009.264620000001,-139.986,-13.742,150.053,1.0
1.9833,128.188657,37.926989,7008.4276392,-140.111,-13.909,149.981,1.0
2.0,128.188679,37.926948,7007.579076,-140.234,-14.075,149.909,1.0
2.0166,128.188702,37.926907,7006.7186255999995,-140.355,-14.24,149.838,1.0
2.0333,128.188724,37.926865,7005.8465928000005,-140.473,-14.405,149.767,1.0
2.05,128.188747,37.926824,7004.9626728,-140.589,-14.57,149.697,1.0
2.0666,128.18877,37.926783,7004.067170400001,-140.704,-14.734,149.627,1.0
2.0833,128.188793,37.926742,7003.1597808,-140.816,-14.898,149.557,1.0
2.1,128.188816,37.926702,7002.240504,-140.926,-15.062,149.488,1.0
2.1166,128.188839,37.926661,7001.30934,-141.035,-15.225,149.419,1.0
2.1333,128.188862,37.92662,7000.3665936,-141.142,-15.388,149.35,1.0
2.15,128.188885,37.926579,6999.41196,-141.246,-15.55,149.281,1.0
2.1666,128.188908,37.926538,6998.4451344,-141.348,-15.713,149.212,1.0
2.1833,128.188931,37.926498,6997.4667264,-141.447,-15.875,149.143,1.0
2.2,128.188955,37.926457,6996.4761264,-141.545,-16.037,149.075,1.0
2.2166,128.188978,37.926416,6995.4736391999995,-141.641,-16.198,149.007,1.0
2.2333,128.189001,37.926376,6994.459264800001,-141.734,-16.359,148.938,1.0
2.25,128.189025,37.926335,6993.4330032,-141.825,-16.52,148.87,1.0
2.2666,128.189049,37.926295,6992.394549600001,-141.912,-16.681,148.802,1.0
2.2833,128.189072,37.926254,6991.3442088,-141.997,-16.841,148.734,1.0
2.3,128.189096,37.926214,6990.281676,-142.08,-17.001,148.666,1.0
2.3166,128.18912,37.926174,6989.207256000001,-142.16,-17.161,148.598,1.0
2.3333,128.189144,37.926133,6988.1209488,-142.237,-17.321,148.53,1.0
2.35,128.189168,37.926093,6987.0224496,-142.31,-17.48,148.461,1.0
2.3666,128.189192,37.926053,6985.9120632,-142.379,-17.639,148.393,1.0
2.3833,128.189216,37.926013,6984.7894848,-142.445,-17.798,148.325,1.0
2.4,128.18924,37.925973,6983.654714400001,-142.508,-17.957,148.257,1.0
2.4166,128.189264,37.925933,6982.508056800001,-142.569,-18.115,148.189,1.0
2.4333,128.189289,37.925893,6981.349512,-142.625,-18.273,148.12,1.0
2.45,128.189313,37.925853,6980.178470400001,-142.677,-18.43,148.051,1.0
2.4666,128.189337,37.925813,6978.9955416,-142.724,-18.586,147.982,1.0
2.4833,128.189362,37.925773,6977.8004208,-142.768,-18.742,147.912,1.0
2.5,128.189386,37.925733,6976.5934128,-142.807,-18.898,147.842,1.0
2.5166,128.189411,37.925693,6975.3742128,-142.843,-19.054,147.772,1.0
2.5333,128.189436,37.925654,6974.1428208,-142.874,-19.209,147.701,1.0
2.55,128.18946,37.925614,6972.899236800001,-142.9,-19.363,147.63,1.0
2.5666,128.189485,37.925574,6971.643765600001,-142.92,-19.516,147.558,1.0
2.5833,128.18951,37.925535,6970.3761024,-142.936,-19.669,147.486,1.0
2.6,128.189535,37.925495,6969.096552000001,-142.948,-19.822,147.414,1.0
2.6166,128.18956,37.925456,6967.8045048,-142.955,-19.974,147.341,1.0
2.6333,128.189585,37.925416,6966.5005704000005,-142.957,-20.126,147.268,1.0
2.65,128.18961,37.925377,6965.184444,-142.955,-20.277,147.194,1.0
2.6666,128.189635,37.925338,6963.8561256,-142.949,-20.427,147.12,1.0
2.6833,128.189661,37.925298,6962.515615200001,-142.938,-20.577,147.045,1.0
2.7,128.189686,37.925259,6961.1629128,-142.923,-20.727,146.97,1.0
2.7166,128.189711,37.92522,6959.798323200001,-142.905,-20.876,146.894,1.0
2.7333,128.189737,37.925181,6958.421541600001,-142.882,-21.025,146.818,1.0
2.75,128.189762,37.925142,6957.0325680000005,-142.855,-21.173,146.741,1.0
2.7666,128.189788,37.925103,6955.631402399999,-142.824,-21.32,146.664,1.0
2.7833,128.189813,37.925064,6954.2180448,-142.789,-21.467,146.586,1.0
2.8,128.189839,37.925025,6952.7928,-142.751,-21.614,146.508,1.0
2.8166,128.189865,37.924986,6951.3553632,-142.709,-21.76,146.429,1.0
2.8333,128.18989,37.924947,6949.9057344,-142.663,-21.906,146.349,1.0
2.85,128.189916,37.924909,6948.4439136,-142.614,-22.05,146.269,1.0
2.8666,128.189942,37.92487,6946.970205600001,-142.561,-22.195,146.188,1.0
2.8833,128.189968,37.924831,6945.484305600001,-142.505,-22.338,146.106,1.0
2.9,128.189994,37.924793,6943.9862136,-142.446,-22.482,146.024,1.0
2.9166,128.19002,37.924754,6942.4759296,-142.383,-22.624,145.941,1.0
2.9333,128.190046,37.924716,6940.9534536,-142.323,-22.765,145.854,1.0
2.95,128.190072,37.924677,6939.4187856,-142.264,-22.902,145.764,1.0
2.9666,128.190099,37.924639,6937.8722304,-142.205,-23.037,145.671,1.0
2.9833,128.190125,37.924601,6936.3134832000005,-142.145,-23.172,145.576,1.0
3.0,128.190151,37.924562,6934.742544,-142.082,-23.305,145.48,1.0
3.0166,128.190178,37.924524,6933.1597176000005,-142.015,-23.437,145.383,1.0
3.0333,128.190204,37.924486,6931.5646992,-141.948,-23.569,145.285,1.0
3.05,128.190231,37.924448,6929.9577936,-141.879,-23.701,145.186,1.0
3.0666,128.190257,37.92441,6928.338696000001,-141.809,-23.832,145.087,1.0
3.0833,128.190284,37.924372,6926.707711200001,-141.738,-23.962,144.987,1.0
3.1,128.190311,37.924334,6925.0645343999995,-141.665,-24.093,144.887,1.0
3.1166,128.190338,37.924296,6923.409165600001,-141.59,-24.223,144.787,1.0
3.1333,128.190364,37.924258,6921.7419096,-141.517,-24.353,144.686,1.0
3.15,128.190391,37.924221,6920.0627664,-141.444,-24.483,144.585,1.0
3.1666,128.190418,37.924183,6918.3714312,-141.372,-24.613,144.484,1.0
3.1833,128.190445,37.924145,6916.668208800001,-141.3,-24.742,144.382,1.0
3.2,128.190472,37.924108,6914.9527944,-141.229,-24.872,144.28,1.0
3.2166,128.190499,37.92407,6913.225797600001,-141.158,-25.001,144.177,1.0
3.2333,128.190526,37.924033,6911.486304,-141.089,-25.13,144.074,1.0
3.25,128.190554,37.923996,6909.7352280000005,-141.022,-25.259,143.971,1.0
3.2666,128.190581,37.923958,6907.971960000001,-140.957,-25.388,143.868,1.0
3.2833,128.190608,37.923921,6906.196804800001,-140.894,-25.517,143.764,1.0
3.3,128.190636,37.923884,6904.4097624,-140.832,-25.646,143.66,1.0
3.3166,128.190663,37.923847,6902.610832800001,-140.771,-25.774,143.556,1.0
3.3333,128.190691,37.92381,6900.799711200001,-140.713,-25.903,143.451,1.0
3.35,128.190718,37.923773,6898.9770072,-140.658,-26.032,143.347,1.0
3.3666,128.190746,37.923736,6897.142111200001,-140.606,-26.16,143.242,1.0
3.3833,128.190773,37.923699,6895.295632800001,-140.555,-26.289,143.136,1.0
3.4,128.190801,37.923662,6893.4369624,-140.506,-26.417,143.031,1.0
3.4166,128.190829,37.923626,6891.566709600001,-140.459,-26.546,142.925,1.0
3.4333,128.190857,37.923589,6889.684569600001,-140.415,-26.674,142.819,1.0
3.45,128.190885,37.923552,6887.790237600001,-140.373,-26.802,142.713,1.0
3.4666,128.190913,37.923516,6885.884323200001,-140.334,-26.931,142.607,1.0
3.4833,128.190941,37.923479,6883.9668264,-140.297,-27.059,142.501,1.0
3.5,128.190969,37.923443,6882.0371376,-140.262,-27.188,142.394,1.0
3.5166,128.190997,37.923407,6880.0958664,-140.228,-27.316,142.287,1.0
3.5333,128.191025,37.92337,6878.142708,-140.197,-27.444,142.18,1.0
3.55,128.191053,37.923334,6876.1779672,-140.169,-27.573,142.073,1.0
3.5666,128.191081,37.923298,6874.2013392,-140.143,-27.701,141.966,1.0
3.5833,128.19111,37.923262,6872.212824000001,-140.119,-27.83,141.859,1.0
3.6,128.191138,37.923226,6870.2127264,-140.096,-27.959,141.751,1.0
3.6166,128.191167,37.92319,6868.200741600001,-140.075,-28.087,141.644,1.0
3.6333,128.191195,37.923154,6866.177174400001,-140.056,-28.216,141.536,1.0
3.65,128.191224,37.923119,6864.1420248,-140.039,-28.344,141.429,1.0
3.6666,128.191252,37.923083,6862.094988000001,-140.024,-28.473,141.321,1.0
3.6833,128.191281,37.923047,6860.036064000001,-140.011,-28.602,141.213,1.0
3.7,128.19131,37.923012,6857.9658624,-139.999,-28.731,141.105,1.0
3.7166,128.191338,37.922976,6855.8837736000005,-139.989,-28.86,140.997,1.0
3.7333,128.191367,37.922941,6853.7901024,-139.98,-28.989,140.889,1.0
3.75,128.191396,37.922905,6851.684544,-139.973,-29.118,140.781,1.0
3.7666,128.191425,37.92287,6849.5677080000005,-139.967,-29.247,140.673,1.0
3.7833,128.191454,37.922835,6847.4389848,-139.963,-29.376,140.565,1.0
3.8,128.191483,37.9228,6845.298679200001,-139.96,-29.505,140.457,1.0
3.8166,128.191512,37.922764,6843.146791200001,-139.958,-29.635,140.349,1.0
3.8333,128.191541,37.922729,6840.983016,-139.957,-29.764,140.241,1.0
3.85,128.19157,37.922694,6838.8079632,-139.958,-29.893,140.133,1.0
3.8666,128.191599,37.92266,6836.621328,-139.96,-30.023,140.025,1.0
3.8833,128.191628,37.922625,6834.4228056,-139.963,-30.153,139.917,1.0
3.9,128.191658,37.92259,6832.2130056000005,-139.967,-30.282,139.809,1.0
3.9166,128.191687,37.922555,6829.9916232000005,-139.972,-30.412,139.701,1.0
3.9333,128.191716,37.922521,6827.7586584,-139.978,-30.542,139.593,1.0
3.95,128.191746,37.922486,6825.513806400001,-139.986,-30.672,139.485,1.0
3.9666,128.191775,37.922452,6823.2576768,-139.994,-30.802,139.377,1.0
3.9833,128.191805,37.922417,6820.989964800001,-140.003,-30.932,139.269,1.0
4.0,128.191834,37.922383,6818.7109752,-140.013,-31.062,139.161,1.0
4.0166,128.191864,37.922349,6816.4200984,-140.024,-31.192,139.053,1.0
4.0333,128.191894,37.922315,6814.117944,-140.036,-31.322,138.945,1.0
4.05,128.191923,37.922281,6811.8042072,-140.048,-31.453,138.837,1.0
4.0666,128.191953,37.922247,6809.478888000001,-140.061,-31.583,138.729,1.0
4.0833,128.191983,37.922213,6807.1419864,-140.075,-31.714,138.621,1.0
4.1,128.192013,37.922179,6804.7938072,-140.09,-31.844,138.513,1.0
4.1166,128.192043,37.922145,6802.4340456,-140.106,-31.975,138.405,1.0
4.1333,128.192073,37.922111,6800.062701600001,-140.122,-32.106,138.297,1.0
4.15,128.192103,37.922078,6797.68008,-140.138,-32.237,138.19,1.0
4.1666,128.192133,37.922044,6795.285876,-140.155,-32.368,138.082,1.0
4.1833,128.192163,37.922011,6792.8803944,-140.173,-32.499,137.974,1.0
4.2,128.192193,37.921977,6790.4633304,-140.192,-32.63,137.866,1.0
4.2166,128.192223,37.921944,6788.034684000001,-140.21,-32.761,137.759,1.0
4.2333,128.192253,37.921911,6785.594760000001,-140.23,-32.892,137.651,1.0
4.25,128.192283,37.921877,6783.1432536,-140.25,-33.024,137.544,1.0
4.2666,128.192314,37.921844,6780.680469600001,-140.27,-33.155,137.436,1.0
4.2833,128.192344,37.921811,6778.206408,-140.291,-33.287,137.329,1.0
4.3,128.192374,37.921778,6775.720764000001,-140.312,-33.418,137.221,1.0
4.3166,128.192405,37.921745,6773.223537600001,-140.334,-33.55,137.114,1.0
4.3333,128.192435,37.921713,6770.715338400001,-140.356,-33.682,137.006,1.0
4.35,128.192466,37.92168,6768.195252,-140.378,-33.813,136.899,1.0
4.3666,128.192496,37.921647,6765.664192800001,-140.401,-33.945,136.791,1.0
4.3833,128.192527,37.921615,6763.121551200001,-140.424,-34.077,136.684,1.0
4.4,128.192557,37.921582,6760.567632,-140.447,-34.209,136.577,1.0
4.4166,128.192588,37.92155,6758.0021304,-140.471,-34.341,136.469,1.0
4.4333,128.192619,37.921517,6755.425656,-140.495,-34.473,136.362,1.0
4.45,128.192649,37.921485,6752.8375992,-140.519,-34.606,136.255,1.0
4.4666,128.19268,37.921453,6750.23796,-140.544,-34.738,136.148,1.0
4.4833,128.192711,37.921421,6747.627348,-140.569,-34.87,136.04,1.0
4.5,128.192742,37.921389,6745.0051536,-140.594,-35.003,135.933,1.0
4.5166,128.192772,37.921357,6742.371681600001,-140.619,-35.135,135.826,1.0
4.5333,128.192803,37.921325,6739.7272368,-140.645,-35.268,135.719,1.0
4.55,128.192834,37.921293,6737.070904800001,-140.671,-35.401,135.612,1.0
4.5666,128.192865,37.921261,6734.403600000001,-140.697,-35.533,135.505,1.0
4.5833,128.192896,37.92123,6731.7250176,-140.723,-35.666,135.398,1.0
4.6,128.192927,37.921198,6729.0351576,-140.749,-35.799,135.29,1.0
4.6166,128.192958,37.921167,6726.3337152,-140.775,-35.932,135.183,1.0
4.6333,128.192989,37.921135,6723.621300000001,-140.802,-36.065,135.076,1.0
4.65,128.19302,37.921104,6720.8973024,-140.829,-36.198,134.969,1.0
4.6666,128.193052,37.921073,6718.162332000001,-140.856,-36.331,134.862,1.0
4.6833,128.193083,37.921042,6715.4157792000005,-140.883,-36.464,134.755,1.0
4.7,128.193114,37.921011,6712.6582536000005,-140.91,-36.597,134.648,1.0
4.7166,128.193145,37.92098,6709.8894504,-140.937,-36.731,134.541,1.0
