Time,Longitude,Latitude,Altitude,Roll (deg),Pitch (deg),Yaw (deg),Health
0.0,128.186502,37.932064,7060.6200672,0.0,-4.003,164.0,1.0
0.0166,128.186518,37.932021,7060.253392800001,0.0,-4.012,164.0,1.0
0.0333,128.186534,37.931978,7059.8867184,-0.085,-4.025,163.988,1.0
0.05,128.186549,37.931935,7059.520044,-0.254,-4.041,163.966,1.0
0.0666,128.186565,37.931892,7059.153979200001,-0.508,-4.059,163.936,1.0
0.0833,128.186581,37.931848,7058.7888288,-0.851,-4.077,163.902,1.0
0.1,128.186596,37.931805,7058.424897600001,-1.283,-4.095,163.868,1.0
0.1166,128.186612,37.931762,7058.062490400001,-1.801,-4.114,163.833,1.0
0.1333,128.186628,37.931719,7057.7016072,-2.403,-4.132,163.798,1.0
0.15,128.186643,37.931676,7057.3431624,-3.087,-4.149,163.765,1.0
0.1666,128.186659,37.931633,7056.987156000001,-3.848,-4.166,163.732,1.0
0.1833,128.186675,37.93159,7056.632978400001,-4.685,-4.182,163.701,1.0
0.2,128.186691,37.931546,7056.2809344,-5.593,-4.197,163.67,1.0
0.2166,128.186706,37.931503,7055.930719200001,-6.571,-4.212,163.641,1.0
0.2333,128.186722,37.93146,7055.5826376,-7.613,-4.226,163.612,1.0
0.25,128.186738,37.931417,7055.2363847999995,-8.719,-4.24,163.585,1.0
0.2666,128.186753,37.931374,7054.891960800001,-9.885,-4.253,163.558,1.0
0.2833,128.186769,37.931331,7054.549060800001,-11.108,-4.266,163.532,1.0
0.3,128.186785,37.931287,7054.2082944,-12.387,-4.278,163.507,1.0
0.3166,128.186801,37.931244,7053.869052000001,-13.718,-4.29,163.483,1.0
0.3333,128.186817,37.931201,7053.531638400001,-15.099,-4.302,163.46,1.0
0.35,128.186832,37.931158,7053.1957488,-16.529,-4.314,163.437,1.0
0.3666,128.186848,37.931115,7052.861383200001,-18.004,-4.326,163.416,1.0
0.3833,128.186864,37.931072,7052.528541600001,-19.523,-4.337,163.395,1.0
0.4,128.18688,37.931028,7052.1972240000005,-21.084,-4.349,163.375,1.0
0.4166,128.186896,37.930985,7051.8674304,-22.685,-4.361,163.356,1.0
0.4333,128.186912,37.930942,7051.538856000001,-24.324,-4.372,163.337,1.0
0.45,128.186928,37.930899,7051.211500800001,-26.0,-4.384,163.32,1.0
0.4666,128.186943,37.930856,7050.8856696,-27.71,-4.396,163.303,1.0
0.4833,128.186959,37.930812,7050.5607528,-29.453,-4.408,163.287,1.0
0.5,128.186975,37.930769,7050.2370552,-31.227,-4.421,163.272,1.0
0.5166,128.186991,37.930726,7049.914272,-33.032,-4.433,163.257,1.0
0.5333,128.187008,37.930683,7049.592708,-34.865,-4.446,163.243,1.0
0.55,128.187024,37.93064,7049.2717536,-36.726,-4.457,163.229,1.0
0.5666,128.18704,37.930597,7048.9520184,-38.612,-4.464,163.212,1.0
0.5833,128.187056,37.930553,7048.632892800001,-40.523,-4.465,163.192,1.0
0.6,128.187072,37.93051,7048.3143768,-42.456,-4.461,163.166,1.0
0.6166,128.187088,37.930467,7047.9967752,-44.412,-4.449,163.134,1.0
0.6333,128.187105,37.930424,7047.679783200001,-46.388,-4.432,163.095,1.0
0.65,128.187121,37.930381,7047.363400800001,-48.384,-4.408,163.048,1.0
0.6666,128.187137,37.930338,7047.047628,-50.398,-4.378,162.994,1.0
0.6833,128.187154,37.930295,7046.7321600000005,-52.428,-4.343,162.931,1.0
0.7,128.18717,37.930251,7046.4173016,-54.474,-4.304,162.86,1.0
0.7166,128.187186,37.930208,7046.102748,-56.534,-4.262,162.78,1.0
0.7333,128.187203,37.930165,7045.7884992,-58.607,-4.217,162.691,1.0
0.75,128.18722,37.930122,7045.4742504000005,-60.693,-4.169,162.593,1.0
0.7666,128.187236,37.930079,7045.160306400001,-62.789,-4.119,162.485,1.0
0.7833,128.187253,37.930036,7044.8463624,-64.896,-4.069,162.365,1.0
0.8,128.18727,37.929993,7044.5324184,-67.012,-4.017,162.234,1.0
0.8166,128.187287,37.92995,7044.218169600001,-69.138,-3.966,162.091,1.0
0.8333,128.187303,37.929907,7043.903616,-71.273,-3.916,161.936,1.0
0.85,128.18732,37.929864,7043.5884528,-73.416,-3.868,161.768,1.0
0.8666,128.187337,37.929821,7043.27268,-75.569,-3.823,161.588,1.0
0.8833,128.187355,37.929778,7042.956297600001,-77.73,-3.782,161.396,1.0
0.9,128.187372,37.929735,7042.6383912,-79.896,-3.746,161.19,1.0
0.9166,128.187389,37.929692,7042.319265600001,-82.055,-3.714,160.972,1.0
0.9333,128.187406,37.929649,7041.998311200001,-84.197,-3.688,160.742,1.0
0.95,128.187424,37.929606,7041.675528000001,-86.312,-3.668,160.5,1.0
0.9666,128.187441,37.929563,7041.3506112000005,-88.39,-3.654,160.245,1.0
0.9833,128.187459,37.92952,7041.023256,-90.421,-3.647,159.978,1.0
1.0,128.187476,37.929477,7040.6931576,-92.398,-3.649,159.7,1.0
1.0166,128.187494,37.929434,7040.3606208,-94.314,-3.66,159.411,1.0
1.0333,128.187512,37.929392,7040.025036,-96.162,-3.681,159.112,1.0
1.05,128.18753,37.929349,7039.6860983999995,-97.938,-3.713,158.803,1.0
1.0666,128.187548,37.929306,7039.3441128,-99.638,-3.756,158.486,1.0
1.0833,128.187566,37.929263,7038.998469600001,-101.26,-3.811,158.161,1.0
1.1,128.187584,37.92922,7038.649168800001,-102.801,-3.877,157.83,1.0
1.1166,128.187602,37.929177,7038.296210400001,-104.262,-3.955,157.495,1.0
1.1333,128.18762,37.929135,7037.9389848,-105.643,-4.044,157.155,1.0
1.15,128.187638,37.929092,7037.5771872000005,-106.945,-4.145,156.813,1.0
1.1666,128.187657,37.929049,7037.2111224,-108.169,-4.257,156.47,1.0
1.1833,128.187675,37.929006,7036.8401808,-109.318,-4.38,156.126,1.0
1.2,128.187694,37.928964,7036.4643624,-110.395,-4.512,155.787,1.0
1.2166,128.187712,37.928921,7036.0830576,-111.403,-4.65,155.455,1.0
1.2333,128.187731,37.928878,7035.6965712,-112.346,-4.794,155.134,1.0
1.25,128.18775,37.928836,7035.303988799999,-113.228,-4.943,154.825,1.0
1.2666,128.187769,37.928793,7034.905920000001,-114.054,-5.094,154.53,1.0
1.2833,128.187788,37.92875,7034.501755200001,-114.826,-5.247,154.248,1.0
1.3,128.187807,37.928708,7034.0908848,-115.55,-5.402,153.979,1.0
1.3166,128.187826,37.928665,7033.673918400001,-116.229,-5.558,153.723,1.0
1.3333,128.187846,37.928623,7033.249941600001,-116.866,-5.714,153.48,1.0
1.35,128.187865,37.92858,7032.8192592000005,-117.466,-5.871,153.248,1.0
1.3666,128.187885,37.928538,7032.3815664,-118.031,-6.028,153.028,1.0
1.3833,128.187904,37.928495,7031.9365584,-118.63,-6.188,152.819,1.0
1.4,128.187924,37.928453,7031.4836256,-119.259,-6.351,152.622,1.0
1.4166,128.187944,37.928411,7031.0224632,-119.912,-6.516,152.434,1.0
1.4333,128.187964,37.928368,7030.5527664,-120.583,-6.682,152.254,1.0
1.45,128.187984,37.928326,7030.0745352,-121.263,-6.847,152.082,1.0
1.4666,128.188004,37.928284,7029.588074400001,-121.948,-7.012,151.915,1.0
1.4833,128.188024,37.928242,7029.093079200001,-122.629,-7.176,151.753,1.0
1.5,128.188045,37.928199,7028.5898544,-123.303,-7.339,151.597,1.0
1.5166,128.188065,37.928157,7028.077790400001,-123.965,-7.503,151.446,1.0
1.5333,128.188086,37.928115,7027.5568872,-124.611,-7.667,151.298,1.0
1.55,128.188107,37.928073,7027.0277544,-125.239,-7.831,151.155,1.0
1.5666,128.188127,37.928031,7026.4894776,-125.846,-7.995,151.016,1.0
1.5833,128.188148,37.927989,7025.9426664,-126.432,-8.16,150.88,1.0
1.6,128.188169,37.927947,7025.386711200001,-126.996,-8.325,150.748,1.0
1.6166,128.18819,37.927905,7024.821612,-127.537,-8.491,150.62,1.0
1.6333,128.188212,37.927864,7024.247673600001,-128.056,-8.657,150.495,1.0
1.65,128.188233,37.927822,7023.6645912,-128.552,-8.824,150.373,1.0
1.6666,128.188254,37.92778,7023.07206,-129.026,-8.991,150.254,1.0
1.6833,128.188276,37.927738,7022.47008,-129.479,-9.159,150.139,1.0
1.7,128.188297,37.927696,7021.858651200001,-129.913,-9.327,150.026,1.0
1.7166,128.188319,37.927655,7021.237773600001,-130.327,-9.495,149.916,1.0
1.7333,128.188341,37.927613,7020.607142400001,-130.723,-9.664,149.809,1.0
1.75,128.188363,37.927572,7019.9667576,-131.102,-9.833,149.704,1.0
1.7666,128.188385,37.92753,7019.316619200001,-131.465,-10.002,149.601,1.0
1.7833,128.188407,37.927488,7018.6567272,-131.814,-10.171,149.5,1.0
1.8,128.188429,37.927447,7017.9867768,-132.15,-10.34,149.401,1.0
1.8166,128.188451,37.927406,7017.306768,-132.473,-10.509,149.304,1.0
1.8333,128.188473,37.927364,7016.616396,-132.784,-10.678,149.209,1.0
1.85,128.188496,37.927323,7015.916270400001,-133.084,-10.846,149.115,1.0
1.8666,128.188518,37.927281,7015.2054768,-133.374,-11.014,149.023,1.0
1.8833,128.188541,37.92724,7014.484624800001,-133.655,-11.182,148.932,1.0
1.9,128.188564,37.927199,7013.7531048,-133.927,-11.35,148.842,1.0
1.9166,128.188586,37.927158,7013.011526400001,-134.191,-11.518,148.754,1.0
1.9333,128.188609,37.927117,7012.25928,-134.447,-11.685,148.666,1.0
1.95,128.188632,37.927075,7011.496365600001,-134.695,-11.852,148.58,1.0
1.9666,128.188655,37.927034,7010.723088000001,-134.937,-12.019,148.495,1.0
1.9833,128.188678,37.926993,7009.9391424000005,-135.173,-12.185,148.41,1.0
2.0,128.188701,37.926952,7009.144224000001,-135.402,-12.351,148.326,1.0
2.0166,128.188725,37.926911,7008.338942400001,-135.625,-12.517,148.244,1.0
2.0333,128.188748,37.92687,7007.522383200001,-135.843,-12.683,148.162,1.0
2.05,128.188771,37.92683,7006.695460800001,-136.056,-12.848,148.08,1.0
2.0666,128.188795,37.926789,7005.857565600001,-136.264,-13.014,148.0,1.0
2.0833,128.188818,37.926748,7005.0083928,-136.467,-13.179,147.92,1.0
2.1,128.188842,37.926707,7004.148552000001,-136.665,-13.343,147.84,1.0
2.1166,128.188866,37.926667,7003.277738400001,-136.859,-13.508,147.761,1.0
2.1333,128.18889,37.926626,7002.395952000001,-137.049,-13.672,147.683,1.0
2.15,128.188914,37.926585,7001.503192800001,-137.235,-13.836,147.605,1.0
2.1666,128.188938,37.926545,7000.5988512,-137.418,-14.0,147.528,1.0
2.1833,128.188962,37.926504,6999.683841600001,-137.596,-14.163,147.451,1.0
2.2,128.188986,37.926464,6998.7575544,-137.771,-14.327,147.374,1.0
2.2166,128.18901,37.926423,6997.8199896,-137.943,-14.49,147.298,1.0
2.2333,128.189034,37.926383,6996.8711472,-138.111,-14.653,147.222,1.0
2.25,128.189059,37.926343,6995.911027200001,-138.276,-14.815,147.147,1.0
2.2666,128.189083,37.926302,6994.9396295999995,-138.438,-14.978,147.071,1.0
2.2833,128.189108,37.926262,6993.9569544000005,-138.597,-15.14,146.997,1.0
2.3,128.189132,37.926222,6992.963001600001,-138.753,-15.302,146.922,1.0
2.3166,128.189157,37.926182,6991.9574664,-138.906,-15.464,146.848,1.0
2.3333,128.189182,37.926142,6990.9406536,-139.057,-15.625,146.773,1.0
2.35,128.189207,37.926102,6989.912258400001,-139.205,-15.787,146.7,1.0
2.3666,128.189232,37.926062,6988.8725856,-139.351,-15.948,146.626,1.0
2.3833,128.189257,37.926022,6987.8213304,-139.495,-16.109,146.552,1.0
2.4,128.189282,37.925982,6986.758492800001,-139.636,-16.27,146.479,1.0
2.4166,128.189307,37.925942,6985.6843776000005,-139.775,-16.43,146.406,1.0
2.4333,128.189332,37.925902,6984.5983752,-139.912,-16.591,146.333,1.0
2.45,128.189357,37.925862,6983.5007904,-140.046,-16.751,146.26,1.0
2.4666,128.189383,37.925823,6982.391928000001,-140.179,-16.911,146.188,1.0
2.4833,128.189408,37.925783,6981.2711784,-140.31,-17.071,146.115,1.0
2.5,128.189434,37.925744,6980.1388464,-140.439,-17.231,146.043,1.0
2.5166,128.189459,37.925704,6978.994627200001,-140.566,-17.391,145.97,1.0
2.5333,128.189485,37.925664,6977.8388256,-140.692,-17.55,145.898,1.0
2.55,128.18951,37.925625,6976.6714416,-140.816,-17.709,145.826,1.0
2.5666,128.189536,37.925586,6975.492170400001,-140.938,-17.868,145.754,1.0
2.5833,128.189562,37.925546,6974.301012,-141.059,-18.027,145.683,1.0
2.6,128.189588,37.925507,6973.0982711999995,-141.178,-18.186,145.611,1.0
2.6166,128.189614,37.925468,6971.8836432,-141.296,-18.345,145.539,1.0
2.6333,128.18964,37.925428,6970.657128000001,-141.413,-18.503,145.467,1.0
2.65,128.189666,37.925389,6969.4187256,-141.529,-18.66,145.395,1.0
2.6666,128.189692,37.92535,6968.168740800001,-141.645,-18.818,145.323,1.0
2.6833,128.189718,37.925311,6966.906564000001,-141.759,-18.974,145.25,1.0
2.7,128.189745,37.925272,6965.6328048000005,-141.873,-19.131,145.176,1.0
2.7166,128.189771,37.925233,6964.3468536,-141.986,-19.287,145.102,1.0
2.7333,128.189797,37.925194,6963.049015200001,-142.099,-19.442,145.028,1.0
2.75,128.189824,37.925155,6961.7392896,-142.21,-19.597,144.953,1.0
2.7666,128.18985,37.925117,6960.417676800001,-142.32,-19.751,144.878,1.0
2.7833,128.189877,37.925078,6959.083872,-142.43,-19.905,144.803,1.0
2.8,128.189904,37.925039,6957.73818,-142.538,-20.059,144.727,1.0
2.8166,128.18993,37.925001,6956.3806008,-142.646,-20.212,144.651,1.0
2.8333,128.189957,37.924962,6955.0111344,-142.752,-20.365,144.574,1.0
2.85,128.189984,37.924923,6953.629476,-142.858,-20.517,144.497,1.0
2.8666,128.190011,37.924885,6952.2356256,-142.963,-20.669,144.42,1.0
2.8833,128.190038,37.924847,6950.829888000001,-143.066,-20.821,144.342,1.0
2.9,128.190065,37.924808,6949.4122632,-143.169,-20.972,144.264,1.0
2.9166,128.190092,37.92477,6947.9824464,-143.271,-21.123,144.185,1.0
2.9333,128.190119,37.924732,6946.540437600001,-143.372,-21.273,144.106,1.0
2.95,128.190146,37.924693,6945.086541600001,-143.473,-21.423,144.026,1.0
2.9666,128.190174,37.924655,6943.6204536000005,-143.572,-21.573,143.946,1.0
2.9833,128.190201,37.924617,6942.1421736,-143.67,-21.722,143.865,1.0
3.0,128.190228,37.924579,6940.652006400001,-143.768,-21.871,143.784,1.0
3.0166,128.190256,37.924541,6939.149647200001,-143.864,-22.019,143.703,1.0
3.0333,128.190283,37.924503,6937.635096000001,-143.958,-22.168,143.622,1.0
3.05,128.190311,37.924465,6936.1083528,-144.051,-22.316,143.541,1.0
3.0666,128.190338,37.924428,6934.5697224000005,-144.142,-22.465,143.459,1.0
3.0833,128.190366,37.92439,6933.0189,-144.232,-22.613,143.378,1.0
3.1,128.190394,37.924352,6931.4558856,-144.32,-22.762,143.297,1.0
3.1166,128.190422,37.924315,6929.880984000001,-144.407,-22.91,143.216,1.0
3.1333,128.190449,37.924277,6928.2935856,-144.492,-23.059,143.136,1.0
3.15,128.190477,37.924239,6926.6943,-144.576,-23.207,143.055,1.0
3.1666,128.190505,37.924202,6925.0825176,-144.658,-23.355,142.974,1.0
3.1833,128.190533,37.924165,6923.458848,-144.738,-23.504,142.894,1.0
3.2,128.190561,37.924127,6921.8229864,-144.817,-23.652,142.813,1.0
3.2166,128.190589,37.92409,6920.1749328000005,-144.895,-23.801,142.733,1.0
3.2333,128.190617,37.924053,6918.5146872000005,-144.97,-23.949,142.653,1.0
3.25,128.190645,37.924015,6916.8425544,-145.044,-24.098,142.572,1.0
3.2666,128.190674,37.923978,6915.157924800001,-145.117,-24.246,142.492,1.0
3.2833,128.190702,37.923941,6913.4611032,-145.187,-24.394,142.412,1.0
3.3,128.19073,37.923904,6911.7523944,-145.255,-24.542,142.332,1.0
3.3166,128.190759,37.923867,6910.0311888,-145.321,-24.69,142.251,1.0
3.3333,128.190787,37.92383,6908.298096,-145.385,-24.838,142.171,1.0
3.35,128.190816,37.923794,6906.552811200001,-145.447,-24.986,142.091,1.0
3.3666,128.190844,37.923757,6904.7953344,-145.506,-25.134,142.011,1.0
3.3833,128.190873,37.92372,6903.025665600001,-145.562,-25.282,141.93,1.0
3.4,128.190901,37.923683,6901.2438048,-145.616,-25.429,141.85,1.0
3.4166,128.19093,37.923647,6899.449752,-145.667,-25.576,141.77,1.0
3.4333,128.190959,37.92361,6897.6435071999995,-145.715,-25.724,141.689,1.0
3.45,128.190987,37.923574,6895.825070400001,-145.761,-25.871,141.609,1.0
3.4666,128.191016,37.923537,6893.994746400001,-145.802,-26.018,141.528,1.0
3.4833,128.191045,37.923501,6892.1522304,-145.841,-26.164,141.448,1.0
3.5,128.191074,37.923465,6890.2972176,-145.876,-26.311,141.367,1.0
3.5166,128.191103,37.923429,6888.4303176,-145.908,-26.457,141.286,1.0
3.5333,128.191132,37.923392,6886.5515304,-145.936,-26.603,141.205,1.0
3.55,128.191161,37.923356,6884.660246400001,-145.96,-26.749,141.124,1.0
3.5666,128.19119,37.92332,6882.7570752,-145.98,-26.894,141.043,1.0
3.5833,128.191219,37.923284,6880.841712,-145.997,-27.04,140.962,1.0
3.6,128.191248,37.923248,6878.9141568000005,-146.009,-27.185,140.881,1.0
3.6166,128.191277,37.923213,6876.9744096,-146.017,-27.33,140.799,1.0
3.6333,128.191306,37.923177,6875.0227752,-146.021,-27.474,140.717,1.0
3.65,128.191336,37.923141,6873.0589488000005,-146.021,-27.618,140.635,1.0
3.6666,128.191365,37.923105,6871.0832352,-146.017,-27.762,140.553,1.0
3.6833,128.191394,37.92307,6869.0953296,-146.009,-27.906,140.471,1.0
3.7,128.191424,37.923034,6867.095232000001,-145.996,-28.049,140.388,1.0
3.7166,128.191453,37.922999,6865.0829424,-145.979,-28.192,140.305,1.0
3.7333,128.191482,37.922963,6863.058765600001,-145.958,-28.335,140.222,1.0
3.75,128.191512,37.922928,6861.022701600001,-145.932,-28.477,140.139,1.0
3.7666,128.191542,37.922893,6858.974445600001,-145.902,-28.619,140.055,1.0
3.7833,128.191571,37.922857,6856.913997600001,-145.868,-28.761,139.971,1.0
3.8,128.191601,37.922822,6854.8416624,-145.83,-28.902,139.887,1.0
3.8166,128.19163,37.922787,6852.75744,-145.788,-29.043,139.803,1.0
3.8333,128.19166,37.922752,6850.6610256,-145.741,-29.183,139.718,1.0
3.85,128.19169,37.922717,6848.552724000001,-145.691,-29.324,139.633,1.0
3.8666,128.19172,37.922682,6846.4322304,-145.636,-29.463,139.548,1.0
3.8833,128.191749,37.922647,6844.2998496,-145.578,-29.603,139.462,1.0
3.9,128.191779,37.922613,6842.1555816,-145.516,-29.742,139.376,1.0
3.9166,128.191809,37.922578,6839.9991216,-145.45,-29.88,139.289,1.0
3.9333,128.191839,37.922543,6837.831079200001,-145.38,-30.019,139.202,1.0
3.95,128.191869,37.922509,6835.6508448,-145.306,-30.157,139.115,1.0
3.9666,128.191899,37.922474,6833.4587232,-145.229,-30.294,139.027,1.0
3.9833,128.191929,37.92244,6831.2544096,-145.149,-30.431,138.939,1.0
4.0,128.191959,37.922405,6829.0385136,-145.066,-30.568,138.85,1.0
4.0166,128.191989,37.922371,6826.8107304,-144.979,-30.704,138.761,1.0
4.0333,128.192019,37.922337,6824.5707552,-144.89,-30.84,138.672,1.0
4.05,128.19205,37.922303,6822.319197600001,-144.797,-30.976,138.582,1.0
4.0666,128.19208,37.922269,6820.055448,-144.702,-31.111,138.492,1.0
4.0833,128.19211,37.922235,6817.780116,-144.605,-31.246,138.401,1.0
4.1,128.19214,37.922201,6815.4928968,-144.505,-31.38,138.309,1.0
4.1166,128.192171,37.922167,6813.193790400001,-144.403,-31.515,138.218,1.0
4.1333,128.192201,37.922133,6810.8827968000005,-144.299,-31.648,138.125,1.0
4.15,128.192231,37.922099,6808.559916,-144.192,-31.782,138.032,1.0
4.1666,128.192262,37.922066,6806.2254528,-144.084,-31.915,137.939,1.0
4.1833,128.192292,37.922032,6803.8791024,-143.974,-32.047,137.845,1.0
4.2,128.192323,37.921998,6801.520864800001,-143.862,-32.18,137.751,1.0
4.2166,128.192353,37.921965,6799.1510448,-143.749,-32.311,137.656,1.0
4.2333,128.192384,37.921932,6796.769337600001,-143.635,-32.443,137.56,1.0
4.25,128.192415,37.921898,6794.376048,-143.519,-32.574,137.464,1.0
4.2666,128.192445,37.921865,6791.971176,-143.402,-32.705,137.368,1.0
4.2833,128.192476,37.921832,6789.5544168,-143.284,-32.836,137.271,1.0
4.3,128.192507,37.921799,6787.1260752,-143.165,-32.966,137.173,1.0
4.3166,128.192537,37.921766,6784.685846400001,-143.046,-33.096,137.075,1.0
4.3333,128.192568,37.921733,6782.2340352,-142.925,-33.226,136.976,1.0
4.35,128.192599,37.9217,6779.7706416,-142.804,-33.355,136.877,1.0
4.3666,128.19263,37.921667,6777.295665600001,-142.683,-33.484,136.777,1.0
4.3833,128.192661,37.921634,6774.8091072,-142.561,-33.612,136.676,1.0
4.4,128.192692,37.921602,6772.3109664,-142.438,-33.741,136.575,1.0
4.4166,128.192723,37.921569,6769.8012432,-142.315,-33.869,136.473,1.0
4.4333,128.192754,37.921537,6767.2799376,-142.192,-33.997,136.371,1.0
4.45,128.192785,37.921504,6764.7473544,-142.068,-34.124,136.268,1.0
4.4666,128.192816,37.921472,6762.202884000001,-141.944,-34.251,136.165,1.0
4.4833,128.192847,37.92144,6759.6474408,-141.819,-34.378,136.061,1.0
4.5,128.192878,37.921407,6757.080110400001,-141.693,-34.504,135.956,1.0
4.5166,128.192909,37.921375,6754.5015023999995,-141.566,-34.631,135.851,1.0
4.5333,128.19294,37.921343,6751.911312,-141.437,-34.756,135.745,1.0
4.55,128.192971,37.921311,6749.3101488,-141.307,-34.882,135.638,1.0
4.5666,128.193003,37.921279,6746.6974032,-141.175,-35.007,135.531,1.0
4.5833,128.193034,37.921248,6744.0730752,-141.042,-35.131,135.423,1.0
4.6,128.193065,37.921216,6741.4377744,-140.907,-35.256,135.315,1.0
4.6166,128.193097,37.921184,6738.791196,-140.77,-35.38,135.206,1.0
4.6333,128.193128,37.921153,6736.1330352,-140.633,-35.503,135.096,1.0
4.65,128.19316,37.921121,6733.463901600001,-140.493,-35.627,134.986,1.0
4.6666,128.193191,37.92109,6730.7831856,-140.353,-35.75,134.875,1.0
4.6833,128.193222,37.921058,6728.091496800001,-140.212,-35.872,134.764,1.0
4.7,128.193254,37.921027,6725.3885304,-140.07,-35.994,134.652,1.0
4.7166,128.193286,37.920996,6722.674591200001,-139.927,-36.116,134.539,1.0
